Time(sec),AJE5OG666CBAC
0.0,-100.0
1.0,-100.0
2.0,-100.0
3.0,-100.0
4.0,-100.0
5.0,-99.99502652519894
6.0,-99.98397435897436
7.0,-99.97292219274978
8.0,-99.96187002652519
9.0,-99.95081786030062
10.0,-99.93976569407604
11.0,-99.92871352785146
12.0,-99.91766136162688
13.0,-99.9066091954023
14.0,-99.89555702917772
15.0,-99.88450486295315
16.0,-99.87345269672855
17.0,-99.86240053050398
18.0,-99.8513483642794
19.0,-99.84029619805482
20.0,-99.82924403183024
21.0,-99.81819186560566
22.0,-99.80713969938108
23.0,-99.79608753315651
24.0,-99.78503536693192
25.0,-99.77398320070733
26.0,-99.76293103448276
27.0,-99.75187886825817
28.0,-99.7408267020336
29.0,-99.72977453580901
30.0,-99.71872236958444
31.0,-99.70767020335987
32.0,-99.69661803713528
33.0,-99.6855658709107
34.0,-99.67451370468612
35.0,-99.66346153846153
36.0,-99.65240937223696
37.0,-99.64135720601237
38.0,-99.6303050397878
39.0,-99.61925287356323
40.0,-99.60820070733864
41.0,-99.59714854111405
42.0,-99.58609637488948
43.0,-99.57504420866489
44.0,-99.56244473916888
45.0,-99.55227674624226
46.0,-99.54188770999116
47.0,-99.53083554376659
48.0,-99.519783377542
49.0,-99.50873121131742
50.0,-99.49767904509284
51.0,-99.48662687886826
52.0,-99.47557471264368
53.0,-99.46452254641909
54.0,-99.45347038019452
55.0,-99.44241821396994
56.0,-99.43136604774536
57.0,-99.42031388152078
58.0,-99.4092617152962
59.0,-99.39820954907162
60.0,-99.38715738284704
61.0,-99.37610521662245
62.0,-99.36505305039788
63.0,-99.3540008841733
64.0,-99.34294871794872
65.0,-99.33189655172414
66.0,-99.32084438549956
67.0,-99.30979221927498
68.0,-99.2987400530504
69.0,-99.28768788682581
70.0,-99.27663572060123
71.0,-99.26558355437666
72.0,-99.25453138815207
73.0,-99.2434792219275
74.0,-99.23242705570291
75.0,-99.22137488947834
76.0,-99.21032272325377
77.0,-99.19927055702917
78.0,-99.1882183908046
79.0,-99.17716622458002
80.0,-99.16611405835543
81.0,-99.15506189213086
82.0,-99.14400972590627
83.0,-99.1329575596817
84.0,-99.12179487179488
85.0,-99.10919540229885
86.0,-99.09980106100795
87.0,-99.08874889478338
88.0,-99.07769672855879
89.0,-99.06664456233422
90.0,-99.05559239610963
91.0,-99.04454022988506
92.0,-99.03348806366049
93.0,-99.0224358974359
94.0,-99.01138373121132
95.0,-99.00033156498674
96.0,-98.98927939876215
97.0,-98.97822723253758
98.0,-98.96717506631299
99.0,-98.95612290008842
100.0,-98.94507073386384
101.0,-98.93401856763926
102.0,-98.92296640141468
103.0,-98.9119142351901
104.0,-98.90086206896552
105.0,-98.88980990274094
106.0,-98.87875773651635
107.0,-98.86770557029178
108.0,-98.8566534040672
109.0,-98.84560123784262
110.0,-98.83454907161804
111.0,-98.82349690539345
112.0,-98.81244473916888
113.0,-98.8013925729443
114.0,-98.78923519009726
115.0,-98.77862511052166
116.0,-98.76823607427056
117.0,-98.75718390804597
118.0,-98.7461317418214
119.0,-98.73507957559681
120.0,-98.72402740937224
121.0,-98.71297524314767
122.0,-98.70192307692307
123.0,-98.6908709106985
124.0,-98.67981874447392
125.0,-98.66876657824933
126.0,-98.65771441202476
127.0,-98.64666224580017
128.0,-98.6356100795756
129.0,-98.62455791335103
130.0,-98.61350574712644
131.0,-98.60245358090185
132.0,-98.59140141467728
133.0,-98.58034924845269
134.0,-98.56929708222812
135.0,-98.55824491600353
136.0,-98.54719274977896
137.0,-98.53614058355438
138.0,-98.5250884173298
139.0,-98.51403625110522
140.0,-98.50298408488064
141.0,-98.49193191865605
142.0,-98.48087975243148
143.0,-98.46982758620689
144.0,-98.45877541998232
145.0,-98.44772325375774
146.0,-98.43667108753316
147.0,-98.42561892130858
148.0,-98.414566755084
149.0,-98.40351458885941
150.0,-98.39246242263484
151.0,-98.38141025641025
152.0,-98.37035809018568
153.0,-98.3593059239611
154.0,-98.34825375773652
155.0,-98.33720159151194
156.0,-98.32614942528735
157.0,-98.31509725906278
158.0,-98.3040450928382
159.0,-98.2929929266136
160.0,-98.28194076038903
161.0,-98.27088859416446
162.0,-98.25983642793987
163.0,-98.2487842617153
164.0,-98.23773209549071
165.0,-98.22667992926614
166.0,-98.21562776304157
167.0,-98.20225464190982
168.0,-98.18081343943413
169.0,-98.15870910698497
170.0,-98.1368258178603
171.0,-98.1288682581786
172.0,-98.1288682581786
173.0,-98.1288682581786
174.0,-98.12654730327145
175.0,-98.11615826702034
176.0,-98.10510610079575
177.0,-98.09405393457118
178.0,-98.08300176834659
179.0,-98.06885499557913
180.0,-98.04708222811671
181.0,-98.02497789566755
182.0,-98.0028735632184
183.0,-97.98076923076923
184.0,-97.95866489832007
185.0,-97.9365605658709
186.0,-97.91445623342176
187.0,-97.89235190097259
188.0,-97.87024756852342
189.0,-97.85123784261715
190.0,-97.83985411140584
191.0,-97.82880194518125
192.0,-97.81885499557913
193.0,-97.81719717064544
194.0,-97.81719717064544
195.0,-97.81719717064544
196.0,-97.81719717064544
197.0,-97.81719717064544
198.0,-97.81719717064544
199.0,-97.81719717064544
200.0,-97.81719717064544
201.0,-97.81719717064544
202.0,-97.816091954023
203.0,-97.8066976127321
204.0,-97.7956454465075
205.0,-97.78459328028293
206.0,-97.77354111405836
207.0,-97.76248894783377
208.0,-97.7514367816092
209.0,-97.74038461538461
210.0,-97.72933244916004
211.0,-97.71595932802829
212.0,-97.6945181255526
213.0,-97.67241379310344
214.0,-97.65030946065428
215.0,-97.62820512820512
216.0,-97.60610079575596
217.0,-97.58399646330682
218.0,-97.56189213085764
219.0,-97.53978779840848
220.0,-97.51768346595932
221.0,-91.61442634602973
222.0,-85.85508288770053
223.0,-78.399
224.0,-77.845
225.0,-77.845
226.0,-77.845
227.0,-74.717
228.0,-69.2
229.0,-69.2
230.0,-69.2
231.0,-69.2844155844156
232.0,-69.45324675324676
233.0,-69.62207792207792
234.0,-69.79090909090908
235.0,-69.95974025974026
236.0,-70.12857142857143
237.0,-70.2974025974026
238.0,-71.68863636363636
239.0,-75.25
240.0,-76.25
241.0,-84.26068627450981
242.0,-97.63333333333334
243.0,-98.0
244.0,-98.0
245.0,-98.0
246.0,-98.0
247.0,-98.0
248.0,-98.0
249.0,-98.0
250.0,-98.0
251.0,-98.0
252.0,-98.0
253.0,-98.0
254.0,-98.0
255.0,-98.0
256.0,-98.0
257.0,-98.0
258.0,-98.0
259.0,-98.0
260.0,-98.0
261.0,-98.0
262.0,-98.0
263.0,-98.0
264.0,-98.0
265.0,-98.0
266.0,-98.0
267.0,-98.0
268.0,-98.0
269.0,-98.0
270.0,-98.0
271.0,-98.0
272.0,-98.0
273.0,-98.0
274.0,-98.0
275.0,-98.0
276.0,-98.0
277.0,-98.0
278.0,-98.0
279.0,-98.0
280.0,-98.0
281.0,-98.0
282.0,-98.0
283.0,-98.0
284.0,-98.0
285.0,-98.0
286.0,-98.0
287.0,-98.0
288.0,-98.0
289.0,-98.0
290.0,-98.0
291.0,-98.0
292.0,-98.0
293.0,-98.0
294.0,-98.0
295.0,-98.0
296.0,-98.0
297.0,-98.0
298.0,-98.0
299.0,-98.0
300.0,-98.0
301.0,-98.0
302.0,-98.0
303.0,-98.0
304.0,-98.0
305.0,-98.0
306.0,-98.0
307.0,-98.0
308.0,-98.0
309.0,-98.0
310.0,-98.0
311.0,-98.0
312.0,-98.0
313.0,-98.0
314.0,-98.0
315.0,-98.0
316.0,-98.0
317.0,-98.0
318.0,-98.0
319.0,-98.0
320.0,-98.0
321.0,-98.0
322.0,-98.0
323.0,-98.0
324.0,-98.0
325.0,-98.0
326.0,-98.0
327.0,-98.0
328.0,-98.0
329.0,-98.0
330.0,-98.0
331.0,-98.0
332.0,-98.0
333.0,-98.0
334.0,-98.0
335.0,-98.0
336.0,-98.0
337.0,-98.0
338.0,-98.0
339.0,-98.0
340.0,-98.0
341.0,-98.0
342.0,-98.0
343.0,-98.0
344.0,-98.0
345.0,-98.0
346.0,-98.0
347.0,-98.0
348.0,-98.0
349.0,-98.0
350.0,-98.0
351.0,-98.0
352.0,-98.0
353.0,-98.0
354.0,-98.0
355.0,-98.0
356.0,-98.0
357.0,-98.0
358.0,-98.0
359.0,-98.0
360.0,-98.0
361.0,-98.0
362.0,-98.0
363.0,-98.0
364.0,-98.0
365.0,-98.0
366.0,-98.0
367.0,-98.0
368.0,-98.0
369.0,-98.0
370.0,-98.0
371.0,-98.0
372.0,-98.0
373.0,-98.0
374.0,-98.0
375.0,-98.0
376.0,-98.0
377.0,-98.0
378.0,-98.0
379.0,-98.0
380.0,-98.0
381.0,-98.0
382.0,-98.0
383.0,-98.0
384.0,-98.0
385.0,-98.0
386.0,-98.0
387.0,-98.0
388.0,-98.0
389.0,-98.0
390.0,-98.0
391.0,-98.0
392.0,-98.0
393.0,-98.0
394.0,-98.0
395.0,-98.0
396.0,-98.0
397.0,-98.0
398.0,-98.0
399.0,-98.0
400.0,-98.0
401.0,-98.0
402.0,-98.0
403.0,-98.0
404.0,-98.0
405.0,-98.0
406.0,-98.0
407.0,-98.0
408.0,-98.0
409.0,-98.0
410.0,-98.0
411.0,-98.0
412.0,-98.0
413.0,-98.0
414.0,-98.0
415.0,-98.0
416.0,-98.0
417.0,-98.0
418.0,-98.0
419.0,-98.0
420.0,-98.0
421.0,-98.0
422.0,-98.0
423.0,-98.0
424.0,-98.0
425.0,-98.0
426.0,-98.0
427.0,-98.0
428.0,-98.0
429.0,-98.0
430.0,-98.0
431.0,-98.0
432.0,-98.0
433.0,-98.0
434.0,-98.0
435.0,-98.0
436.0,-98.0
437.0,-98.0
438.0,-98.0
439.0,-98.0
440.0,-98.0
441.0,-98.0
442.0,-98.0
443.0,-98.0
444.0,-98.0
445.0,-98.0
446.0,-98.0
447.0,-98.0
448.0,-98.0
449.0,-98.0
450.0,-98.0
451.0,-98.0
452.0,-98.0
453.0,-98.0
454.0,-98.0
455.0,-98.0
456.0,-98.0
457.0,-98.0
458.0,-98.0
459.0,-98.0
460.0,-98.0
461.0,-98.0
462.0,-98.0
463.0,-98.0
464.0,-98.0
465.0,-98.0
466.0,-98.0
467.0,-98.0
468.0,-98.0
469.0,-98.0
470.0,-98.0
471.0,-98.0
472.0,-98.0
473.0,-98.0
474.0,-98.0
475.0,-98.0
476.0,-98.0
477.0,-98.0
478.0,-98.0
479.0,-98.0
480.0,-98.0
481.0,-98.0
482.0,-98.0
483.0,-98.0
484.0,-98.0
485.0,-98.0
486.0,-98.0
487.0,-98.0
488.0,-98.0
489.0,-98.0
490.0,-98.0
491.0,-98.0
492.0,-98.0
493.0,-98.0
494.0,-98.0
495.0,-98.0
496.0,-98.0
497.0,-98.0
498.0,-98.0
499.0,-98.0
500.0,-98.0
501.0,-98.0
502.0,-98.0
503.0,-98.0
504.0,-98.0
505.0,-98.0
506.0,-98.0
507.0,-98.0
508.0,-98.0
509.0,-98.0
510.0,-98.0
511.0,-98.0
512.0,-98.0
513.0,-98.0
514.0,-98.0
515.0,-98.0
516.0,-98.0
517.0,-98.0
518.0,-98.0
519.0,-98.0
520.0,-98.0
521.0,-98.0
522.0,-98.0
523.0,-98.0
524.0,-98.0
525.0,-98.0
526.0,-98.0
527.0,-98.0
528.0,-98.0
529.0,-98.0
530.0,-98.0
531.0,-98.0
532.0,-98.0
533.0,-98.0
