Time(sec),A11PJ3TQ4LWGW
0.0,-99.07921875
1.0,-97.043125
2.0,-95.03296875
3.0,-92.98390624999999
4.0,-90.9478125
5.0,-88.91171875
6.0,-86.88859375
7.0,-84.85249999999999
8.0,-82.829375
9.0,-81.26015625
10.0,-79.96328125
11.0,-78.66640625
12.0,-77.36953125
13.0,-76.07265625
14.0,-74.77578125
15.0,-73.47890625
16.0,-72.18203125
17.0,-70.88515625
18.0,-69.58828125
19.0,-68.29140625
20.0,-66.99453125
21.0,-65.69765625
22.0,-64.40078125
23.0,-63.10390625
24.0,-61.80703125
25.0,-60.51015625
26.0,-59.21328125
27.0,-57.91640625
28.0,-56.61953125
29.0,-55.32265625
30.0,-54.02578125
31.0,-52.72890625
32.0,-51.43203125
33.0,-50.135156249999994
34.0,-48.838281249999994
35.0,-47.541406249999994
36.0,-46.244531249999994
37.0,-44.947656249999994
38.0,-43.650781249999994
39.0,-42.353906249999994
40.0,-41.057031249999994
41.0,-39.760156249999994
42.0,-38.463281249999994
43.0,-37.166406249999994
44.0,-35.869531249999994
45.0,-34.572656249999994
46.0,-33.275781249999994
47.0,-31.978906249999994
48.0,-30.682031249999994
49.0,-29.385156249999994
50.0,-28.088281249999994
51.0,-26.791406249999994
52.0,-25.494531249999994
53.0,-24.197656249999994
54.0,-22.900781249999994
55.0,-21.603906249999994
56.0,-20.307031249999994
57.0,-19.010156249999994
58.0,-17.713281249999994
59.0,-16.416406249999994
60.0,-15.11953124999999
61.0,-13.82265624999999
62.0,-12.52578124999999
63.0,-11.22890624999999
64.0,-9.93203124999999
65.0,-8.63515624999999
66.0,-7.338281249999992
67.0,-6.041406249999992
68.0,-4.744531249999992
69.0,-3.4476562499999917
70.0,-2.1507812499999917
71.0,-0.8539062499999914
72.0,0.4429687500000085
73.0,1.7398437500000086
74.0,2.569843750000004
75.0,2.582812500000003
76.0,2.582812500000003
77.0,2.582812500000003
78.0,2.582812500000003
79.0,2.582812500000003
80.0,2.582812500000003
81.0,2.582812500000003
82.0,2.582812500000003
83.0,2.582812500000003
84.0,3.049687500000007
85.0,4.333593750000008
86.0,5.630468750000008
87.0,6.927343750000008
88.0,8.22421875000001
89.0,9.52109375000001
90.0,10.81796875000001
91.0,12.11484375000001
92.0,13.41171875000001
93.0,14.70859375000001
94.0,16.005468750000013
95.0,17.302343750000013
96.0,18.599218750000013
97.0,19.896093750000013
98.0,21.192968750000013
99.0,22.489843750000013
100.0,23.786718750000013
101.0,25.083593750000013
102.0,26.380468750000013
103.0,27.677343750000013
104.0,28.974218750000013
105.0,30.271093750000013
106.0,31.567968750000013
107.0,32.86484375000001
108.0,34.16171875000001
109.0,35.45859375000001
110.0,36.75546875000001
111.0,38.05234375000001
112.0,39.34921875000001
113.0,40.64609375000001
114.0,41.94296875000001
115.0,43.23984375000001
116.0,49.64421875000001
117.0,86.61713864306785
118.0,95.69734513274337
119.0,89.07787610619468
120.0,82.45840707964602
121.0,75.83893805309734
122.0,69.21946902654868
123.0,62.6
124.0,55.98053097345134
125.0,49.36106194690266
126.0,43.6683185840708
127.0,40.25929203539823
128.0,36.9495575221239
129.0,33.63982300884956
130.0,30.33008849557523
131.0,27.02035398230089
132.0,23.71061946902655
133.0,20.40088495575222
134.0,17.09115044247788
135.0,13.781415929203543
136.0,10.471681415929208
137.0,7.161946902654873
138.0,3.8522123893805373
139.0,1.2375221238938123
140.0,1.038938053097354
141.0,1.038938053097354
142.0,1.038938053097354
143.0,1.038938053097354
144.0,1.038938053097354
145.0,1.038938053097354
146.0,1.038938053097354
147.0,1.038938053097354
148.0,1.038938053097354
149.0,0.3438938053097417
150.0,-2.7672566371681357
151.0,-6.076991150442472
152.0,-9.386725663716808
153.0,-12.696460176991144
154.0,-16.00619469026548
155.0,-19.315929203539817
156.0,-22.625663716814152
157.0,-25.935398230088488
158.0,-29.245132743362824
159.0,-32.55486725663716
160.0,-36.361061946902645
161.0,-42.649557522123885
162.0,-49.26902654867256
163.0,-55.888495575221235
164.0,-62.5079646017699
165.0,-69.12743362831857
166.0,-75.74690265486724
167.0,-82.36637168141593
168.0,-82.72386061946902
169.0,-64.71083333333334
170.0,-35.97638888888889
171.0,-23.75
172.0,-15.1
173.0,-9.230357142857143
174.0,5.9279761904761905
175.0,21.2
176.0,32.90833333333333
177.0,45.8
178.0,53.875
179.0,55.8
180.0,57.0
181.0,58.97142857142857
182.0,60.28571428571429
183.0,61.4
184.0,64.0
185.0,65.0
186.0,66.0
187.0,67.76
188.0,71.54809523809524
189.0,88.31274427953
190.0,91.0
191.0,91.82729166666667
192.0,98.2969696969697
193.0,100.0
194.0,100.0
195.0,100.0
196.0,100.0
197.0,100.0
198.0,100.0
199.0,100.0
200.0,100.0
201.0,100.0
202.0,100.0
203.0,100.0
204.0,100.0
205.0,100.0
206.0,100.0
207.0,100.0
208.0,100.0
209.0,100.0
210.0,100.0
211.0,100.0
212.0,100.0
213.0,100.0
214.0,100.0
215.0,100.0
216.0,100.0
217.0,100.0
218.0,100.0
219.0,100.0
220.0,100.0
221.0,100.0
222.0,100.0
223.0,100.0
224.0,100.0
225.0,100.0
226.0,100.0
227.0,100.0
228.0,100.0
229.0,100.0
230.0,100.0
231.0,100.0
232.0,100.0
233.0,100.0
234.0,100.0
235.0,100.0
236.0,100.0
237.0,100.0
238.0,100.0
239.0,100.0
240.0,100.0
241.0,100.0
242.0,100.0
243.0,100.0
244.0,100.0
245.0,100.0
246.0,100.0
247.0,100.0
248.0,100.0
249.0,100.0
250.0,100.0
251.0,100.0
252.0,100.0
253.0,100.0
254.0,100.0
255.0,100.0
256.0,100.0
257.0,100.0
258.0,99.92361111111111
259.0,99.78472222222221
260.0,99.64583333333334
261.0,98.7875
262.0,97.66666666666667
263.0,97.66666666666667
264.0,97.66666666666667
265.0,97.66666666666667
266.0,97.66666666666667
267.0,97.66666666666667
268.0,97.66666666666667
269.0,97.66666666666667
270.0,97.66666666666667
271.0,95.40666666666667
272.0,74.44333333333333
273.0,49.68666666666667
274.0,22.933333333333334
275.0,-2.0166666666666666
276.0,-28.54666666666667
277.0,-53.21666666666666
278.0,-73.05
279.0,-95.0
280.0,-100.0
281.0,-100.0
282.0,-100.0
283.0,-100.0
284.0,-100.0
285.0,-100.0
286.0,-100.0
287.0,-100.0
288.0,-100.0
289.0,-100.0
290.0,-100.0
291.0,-100.0
292.0,-100.0
293.0,-100.0
294.0,-100.0
295.0,-100.0
296.0,-100.0
297.0,-100.0
298.0,-100.0
299.0,-100.0
300.0,-100.0
301.0,-100.0
302.0,-100.0
303.0,-100.0
304.0,-100.0
305.0,-100.0
306.0,-100.0
307.0,-100.0
308.0,-100.0
309.0,-100.0
310.0,-100.0
311.0,-100.0
312.0,-100.0
313.0,-100.0
314.0,-100.0
315.0,-100.0
316.0,-100.0
317.0,-100.0
318.0,-100.0
319.0,-100.0
320.0,-100.0
321.0,-100.0
322.0,-100.0
323.0,-100.0
324.0,-100.0
325.0,-100.0
326.0,-100.0
327.0,-100.0
328.0,-100.0
329.0,-100.0
330.0,-100.0
331.0,-100.0
332.0,-100.0
333.0,-100.0
334.0,-100.0
335.0,-100.0
336.0,-100.0
337.0,-100.0
338.0,-100.0
339.0,-100.0
340.0,-100.0
341.0,-100.0
342.0,-100.0
343.0,-100.0
344.0,-100.0
345.0,-100.0
346.0,-100.0
347.0,-100.0
348.0,-100.0
349.0,-100.0
350.0,-100.0
351.0,-100.0
352.0,-100.0
353.0,-100.0
354.0,-100.0
355.0,-100.0
356.0,-100.0
357.0,-100.0
358.0,-100.0
359.0,-100.0
360.0,-100.0
361.0,-100.0
362.0,-100.0
363.0,-100.0
364.0,-100.0
365.0,-100.0
366.0,-100.0
367.0,-100.0
368.0,-100.0
369.0,-100.0
370.0,-100.0
371.0,-100.0
372.0,-100.0
373.0,-100.0
374.0,-100.0
375.0,-100.0
376.0,-100.0
377.0,-100.0
378.0,-100.0
379.0,-100.0
380.0,-100.0
381.0,-100.0
382.0,-100.0
383.0,-100.0
384.0,-100.0
385.0,-100.0
386.0,-100.0
387.0,-100.0
388.0,-100.0
389.0,-100.0
390.0,-100.0
391.0,-100.0
392.0,-100.0
393.0,-100.0
394.0,-100.0
395.0,-100.0
396.0,-100.0
397.0,-100.0
398.0,-100.0
399.0,-100.0
400.0,-100.0
401.0,-100.0
402.0,-100.0
403.0,-100.0
404.0,-100.0
405.0,-100.0
406.0,-100.0
407.0,-100.0
408.0,-100.0
409.0,-100.0
410.0,-100.0
411.0,-100.0
412.0,-100.0
413.0,-100.0
414.0,-100.0
415.0,-100.0
416.0,-100.0
417.0,-100.0
418.0,-100.0
419.0,-100.0
420.0,-100.0
421.0,-100.0
422.0,-100.0
423.0,-100.0
424.0,-100.0
425.0,-100.0
426.0,-100.0
427.0,-100.0
428.0,-100.0
429.0,-100.0
430.0,-100.0
431.0,-100.0
432.0,-100.0
433.0,-100.0
434.0,-100.0
435.0,-100.0
436.0,-100.0
437.0,-100.0
438.0,-100.0
439.0,-100.0
440.0,-100.0
441.0,-100.0
442.0,-100.0
443.0,-100.0
444.0,-100.0
445.0,-100.0
446.0,-100.0
447.0,-100.0
448.0,-100.0
449.0,-100.0
450.0,-100.0
451.0,-100.0
452.0,-100.0
453.0,-100.0
454.0,-100.0
455.0,-100.0
456.0,-100.0
457.0,-100.0
458.0,-100.0
459.0,-100.0
460.0,-100.0
461.0,-100.0
462.0,-100.0
463.0,-100.0
464.0,-100.0
465.0,-100.0
466.0,-100.0
467.0,-100.0
468.0,-100.0
469.0,-100.0
470.0,-100.0
471.0,-100.0
472.0,-100.0
473.0,-100.0
474.0,-100.0
475.0,-100.0
476.0,-100.0
477.0,-100.0
478.0,-100.0
479.0,-100.0
480.0,-100.0
481.0,-100.0
482.0,-100.0
483.0,-100.0
484.0,-100.0
485.0,-100.0
486.0,-100.0
487.0,-100.0
488.0,-100.0
489.0,-100.0
490.0,-100.0
491.0,-100.0
492.0,-100.0
493.0,-100.0
494.0,-100.0
495.0,-100.0
496.0,-100.0
497.0,-100.0
498.0,-100.0
499.0,-100.0
500.0,-100.0
501.0,-100.0
502.0,-100.0
503.0,-100.0
504.0,-100.0
505.0,-100.0
506.0,-100.0
507.0,-100.0
508.0,-100.0
509.0,-100.0
510.0,-100.0
511.0,-100.0
512.0,-100.0
513.0,-100.0
514.0,-100.0
515.0,-100.0
516.0,-100.0
517.0,-100.0
518.0,-100.0
519.0,-100.0
520.0,-100.0
521.0,-100.0
522.0,-100.0
523.0,-100.0
524.0,-100.0
525.0,-100.0
526.0,-100.0
527.0,-100.0
528.0,-100.0
529.0,-100.0
530.0,-100.0
531.0,-100.0
532.0,-100.0
533.0,-100.0
534.0,-100.0
535.0,-100.0
536.0,-100.0
537.0,-100.0
538.0,-100.0
539.0,-100.0
540.0,-100.0
541.0,-100.0
542.0,-100.0
543.0,-100.0
544.0,-100.0
545.0,-100.0
546.0,-100.0
547.0,-100.0
548.0,-100.0
549.0,-100.0
550.0,-100.0
551.0,-100.0
552.0,-100.0
553.0,-100.0
554.0,-100.0
555.0,-100.0
556.0,-100.0
557.0,-100.0
558.0,-100.0
559.0,-100.0
560.0,-100.0
561.0,-100.0
562.0,-100.0
