Time(sec),A1W7S7ALCLVTL
0.0,-99.95374548736461
1.0,-99.86123646209386
2.0,-99.76132671480144
3.0,-99.66696750902527
4.0,-99.56520758122744
5.0,-99.47269855595667
6.0,-99.37278880866425
7.0,-99.27842960288808
8.0,-99.17666967509025
9.0,-99.0841606498195
10.0,-98.97685018050541
11.0,-98.80663357400722
12.0,-98.6216155234657
13.0,-98.43659747292419
14.0,-98.25157942238266
15.0,-98.06656137184116
16.0,-97.88154332129963
17.0,-97.69652527075813
18.0,-97.5115072202166
19.0,-97.32648916967509
20.0,-97.14147111913357
21.0,-96.95645306859205
22.0,-96.77143501805054
23.0,-96.58641696750902
24.0,-96.40139891696751
25.0,-96.216380866426
26.0,-96.03136281588448
27.0,-95.84634476534296
28.0,-95.66132671480145
29.0,-95.47630866425993
30.0,-95.29129061371842
31.0,-95.10627256317689
32.0,-94.92125451263539
33.0,-94.73623646209386
34.0,-94.55121841155236
35.0,-94.36620036101083
36.0,-94.18118231046932
37.0,-93.9961642599278
38.0,-93.81114620938628
39.0,-93.62612815884476
40.0,-93.44111010830325
41.0,-93.25609205776173
42.0,-93.07107400722022
43.0,-92.8860559566787
44.0,-92.70103790613719
45.0,-92.51601985559566
46.0,-92.33100180505416
47.0,-92.14598375451263
48.0,-91.96096570397113
49.0,-91.7759476534296
50.0,-91.59092960288808
51.0,-91.40591155234657
52.0,-91.22089350180505
53.0,-91.03587545126354
54.0,-90.85085740072202
55.0,-90.6658393501805
56.0,-90.48082129963899
57.0,-90.29580324909747
58.0,-90.11078519855596
59.0,-89.92576714801444
60.0,-89.74074909747293
61.0,-89.55573104693141
62.0,-89.3707129963899
63.0,-89.18569494584838
64.0,-89.00067689530685
65.0,-88.81565884476535
66.0,-88.63064079422382
67.0,-88.44562274368232
68.0,-88.26060469314079
69.0,-88.07558664259928
70.0,-87.89056859205776
71.0,-87.70555054151625
72.0,-87.52053249097473
73.0,-87.33551444043322
74.0,-87.15049638989169
75.0,-86.96547833935018
76.0,-86.78046028880865
77.0,-86.59544223826715
78.0,-86.41042418772562
79.0,-86.22540613718412
80.0,-86.0403880866426
81.0,-85.85537003610109
82.0,-85.67035198555956
83.0,-85.48533393501805
84.0,-85.30031588447653
85.0,-85.11529783393502
86.0,-84.9302797833935
87.0,-84.74526173285199
88.0,-84.56024368231047
89.0,-84.37522563176896
90.0,-84.19020758122744
91.0,-84.00518953068593
92.0,-83.82017148014441
93.0,-83.63515342960288
94.0,-83.45013537906138
95.0,-83.26511732851985
96.0,-83.08009927797835
97.0,-82.89508122743682
98.0,-82.71006317689532
99.0,-82.52504512635379
100.0,-82.34002707581229
101.0,-82.15500902527076
102.0,-81.96999097472924
103.0,-81.78497292418773
104.0,-81.59995487364621
105.0,-81.4149368231047
106.0,-81.22991877256318
107.0,-81.04490072202165
108.0,-80.85988267148015
109.0,-80.67486462093862
110.0,-80.48984657039712
111.0,-80.30482851985559
112.0,-80.11981046931407
113.0,-79.93479241877256
114.0,-79.74977436823104
115.0,-79.56475631768953
116.0,-79.37973826714801
117.0,-79.1947202166065
118.0,-79.00970216606498
119.0,-78.82468411552347
120.0,-78.63966606498195
121.0,-78.45464801444044
122.0,-78.26962996389892
123.0,-78.0846119133574
124.0,-77.89959386281589
125.0,-77.71457581227438
126.0,-77.52955776173285
127.0,-77.34453971119135
128.0,-77.15952166064982
129.0,-76.97450361010831
130.0,-76.78948555956678
131.0,-76.60446750902527
132.0,-76.41944945848375
133.0,-76.23443140794224
134.0,-76.04941335740072
135.0,-75.86439530685921
136.0,-75.67937725631768
137.0,-75.49435920577618
138.0,-75.30934115523465
139.0,-75.12432310469315
140.0,-74.93930505415162
141.0,-74.75428700361012
142.0,-74.56926895306859
143.0,-74.38425090252709
144.0,-74.19923285198556
145.0,-74.01421480144404
146.0,-73.82919675090253
147.0,-73.64417870036101
148.0,-73.4591606498195
149.0,-73.27414259927798
150.0,-73.08912454873646
151.0,-72.90410649819495
152.0,-72.71908844765343
153.0,-72.53407039711192
154.0,-72.3490523465704
155.0,-72.16403429602887
156.0,-71.97901624548737
157.0,-71.79399819494584
158.0,-71.60898014440434
159.0,-71.42396209386281
160.0,-71.23894404332131
161.0,-71.05392599277978
162.0,-70.86890794223828
163.0,-70.68388989169675
164.0,-70.49887184115524
165.0,-70.31385379061372
166.0,-70.1288357400722
167.0,-69.94381768953069
168.0,-69.75879963898917
169.0,-69.57378158844764
170.0,-69.38876353790614
171.0,-69.20374548736461
172.0,-69.01872743682311
173.0,-68.83370938628158
174.0,-68.64869133574007
175.0,-68.46367328519855
176.0,-68.27865523465704
177.0,-68.09363718411552
178.0,-67.908619133574
179.0,-67.72360108303249
180.0,-67.53858303249098
181.0,-67.35356498194946
182.0,-67.16854693140795
183.0,-66.98352888086643
184.0,-66.79851083032491
185.0,-66.6134927797834
186.0,-66.42847472924188
187.0,-66.24345667870037
188.0,-66.05843862815884
189.0,-65.87342057761734
190.0,-65.68840252707581
191.0,-65.50338447653431
192.0,-65.31836642599278
193.0,-65.13334837545126
194.0,-64.94833032490975
195.0,-64.76331227436823
196.0,-64.57829422382672
197.0,-64.3932761732852
198.0,-64.20825812274367
199.0,-64.02324007220217
200.0,-63.83822202166065
201.0,-63.65320397111914
202.0,-63.46818592057762
203.0,-63.28316787003611
204.0,-63.09814981949459
205.0,-62.91313176895308
206.0,-62.72811371841156
207.0,-62.543095667870034
208.0,-62.358077617328526
209.0,-62.16750902527076
210.0,-61.84927797833935
211.0,-61.47924187725632
212.0,-61.10920577617329
213.0,-60.73916967509025
214.0,-60.36913357400722
215.0,-59.99909747292419
216.0,-59.62906137184116
217.0,-59.25902527075813
218.0,-63.307400722021654
219.0,-65.8
220.0,-71.5
221.0,-71.5
222.0,-72.25
223.0,-79.0
224.0,-79.0
225.0,-80.875
226.0,-85.25
227.0,-96.35730383348309
228.0,-98.88561320754717
229.0,-99.00353773584905
230.0,-99.12146226415095
231.0,-99.23938679245283
232.0,-99.35731132075472
233.0,-99.4752358490566
234.0,-99.59316037735849
235.0,-99.71108490566039
236.0,-99.82900943396227
237.0,-99.94693396226415
238.0,-100.0
239.0,-100.0
240.0,-100.0
241.0,-100.0
242.0,-100.0
243.0,-100.0
244.0,-100.0
245.0,-100.0
246.0,-100.0
247.0,-100.0
248.0,-100.0
249.0,-100.0
250.0,-100.0
251.0,-100.0
252.0,-100.0
253.0,-100.0
254.0,-100.0
255.0,-100.0
256.0,-100.0
257.0,-100.0
258.0,-100.0
259.0,-100.0
260.0,-100.0
261.0,-100.0
262.0,-100.0
263.0,-100.0
264.0,-100.0
265.0,-100.0
266.0,-100.0
267.0,-100.0
268.0,-100.0
269.0,-100.0
270.0,-100.0
271.0,-100.0
272.0,-100.0
273.0,-100.0
274.0,-100.0
275.0,-100.0
276.0,-100.0
277.0,-100.0
278.0,-100.0
279.0,-100.0
280.0,-100.0
281.0,-100.0
282.0,-100.0
283.0,-100.0
284.0,-100.0
285.0,-100.0
286.0,-100.0
287.0,-100.0
288.0,-100.0
289.0,-100.0
290.0,-100.0
291.0,-100.0
292.0,-100.0
293.0,-100.0
294.0,-100.0
295.0,-100.0
296.0,-100.0
297.0,-100.0
298.0,-100.0
299.0,-100.0
300.0,-100.0
301.0,-100.0
302.0,-100.0
303.0,-100.0
304.0,-100.0
305.0,-100.0
306.0,-100.0
307.0,-100.0
308.0,-100.0
309.0,-100.0
310.0,-100.0
311.0,-100.0
312.0,-100.0
313.0,-100.0
314.0,-100.0
315.0,-100.0
316.0,-100.0
317.0,-100.0
318.0,-100.0
319.0,-100.0
320.0,-100.0
321.0,-100.0
322.0,-100.0
323.0,-100.0
324.0,-100.0
325.0,-100.0
326.0,-100.0
327.0,-100.0
328.0,-100.0
329.0,-100.0
330.0,-100.0
331.0,-100.0
332.0,-100.0
333.0,-100.0
334.0,-100.0
335.0,-100.0
336.0,-100.0
337.0,-100.0
338.0,-100.0
339.0,-100.0
340.0,-100.0
341.0,-100.0
342.0,-100.0
343.0,-100.0
344.0,-100.0
345.0,-100.0
346.0,-100.0
347.0,-100.0
348.0,-100.0
349.0,-100.0
350.0,-100.0
351.0,-100.0
352.0,-100.0
353.0,-100.0
354.0,-100.0
355.0,-100.0
356.0,-100.0
357.0,-100.0
358.0,-100.0
359.0,-100.0
360.0,-100.0
361.0,-100.0
362.0,-100.0
363.0,-100.0
364.0,-100.0
365.0,-100.0
366.0,-100.0
367.0,-100.0
368.0,-100.0
369.0,-100.0
370.0,-100.0
371.0,-100.0
372.0,-100.0
373.0,-100.0
374.0,-100.0
375.0,-100.0
376.0,-100.0
377.0,-100.0
378.0,-100.0
379.0,-100.0
380.0,-100.0
381.0,-100.0
382.0,-100.0
383.0,-100.0
384.0,-100.0
385.0,-100.0
386.0,-100.0
387.0,-100.0
388.0,-100.0
389.0,-100.0
390.0,-100.0
391.0,-100.0
392.0,-100.0
393.0,-100.0
394.0,-100.0
395.0,-100.0
396.0,-100.0
397.0,-100.0
398.0,-100.0
399.0,-100.0
400.0,-100.0
401.0,-100.0
402.0,-100.0
403.0,-100.0
404.0,-100.0
405.0,-100.0
406.0,-100.0
407.0,-100.0
408.0,-100.0
409.0,-100.0
410.0,-100.0
411.0,-100.0
412.0,-99.9984626647145
413.0,-99.9915812591508
414.0,-99.98426061493412
415.0,-99.97693997071742
416.0,-99.96961932650073
417.0,-99.96229868228404
418.0,-99.95497803806735
419.0,-99.94765739385066
420.0,-99.94033674963397
421.0,-99.93301610541728
422.0,-99.92569546120059
423.0,-99.9183748169839
424.0,-99.91105417276721
425.0,-99.90373352855052
426.0,-99.89641288433383
427.0,-99.88909224011714
428.0,-99.88177159590045
429.0,-99.87445095168376
430.0,-99.86713030746705
431.0,-99.85980966325036
432.0,-99.85248901903367
433.0,-99.84516837481698
434.0,-99.83784773060029
435.0,-99.8305270863836
436.0,-99.8232064421669
437.0,-99.81588579795022
438.0,-99.80856515373353
439.0,-99.80124450951683
440.0,-99.79392386530014
441.0,-99.78660322108345
442.0,-99.77928257686676
443.0,-99.77196193265007
444.0,-99.76464128843338
445.0,-99.75732064421669
446.0,-99.75
447.0,-99.74267935578331
448.0,-99.73535871156662
449.0,-99.72803806734993
450.0,-99.72071742313324
451.0,-99.71339677891655
452.0,-99.70607613469986
453.0,-99.69875549048317
454.0,-99.69143484626647
455.0,-99.68411420204978
456.0,-99.6767935578331
457.0,-99.6694729136164
458.0,-99.66215226939971
459.0,-99.65483162518302
460.0,-99.64751098096633
461.0,-99.64019033674964
462.0,-99.63286969253295
463.0,-99.62554904831624
464.0,-99.61822840409955
465.0,-99.61090775988286
466.0,-99.60358711566617
467.0,-99.59626647144948
468.0,-99.58894582723279
469.0,-99.5816251830161
470.0,-99.57430453879941
471.0,-99.56698389458272
472.0,-99.55966325036603
473.0,-99.55234260614934
474.0,-99.54502196193265
475.0,-99.53770131771596
476.0,-99.53038067349927
477.0,-99.52306002928258
478.0,-99.51573938506588
479.0,-99.5084187408492
480.0,-98.51820400195217
481.0,-93.0
482.0,-93.0
483.0,-93.0
484.0,-93.0
485.0,-93.0
486.0,-93.0
487.0,-93.0
488.0,-93.0
489.0,-93.0
490.0,-93.0
491.0,-87.4
492.0,-77.01851015801354
493.0,-76.31941309255079
494.0,-75.8152746425884
495.0,-75.31113619262604
496.0,-74.80699774266365
497.0,-74.30285929270129
498.0,-73.7987208427389
499.0,-73.29458239277652
500.0,-72.79044394281415
501.0,-72.28630549285177
502.0,-71.78216704288938
503.0,-71.27802859292701
504.0,-70.77389014296463
505.0,-70.26975169300226
506.0,-69.76561324303988
507.0,-69.2614747930775
508.0,-68.75733634311513
509.0,-68.25319789315276
510.0,-67.74905944319036
511.0,-67.24492099322799
512.0,-66.74078254326562
513.0,-66.23664409330323
514.0,-65.73250564334086
515.0,-65.22836719337849
516.0,-64.72422874341609
517.0,-64.22009029345372
518.0,-63.71595184349135
519.0,-63.21181339352897
520.0,-62.70767494356659
521.0,-62.20353649360421
522.0,-61.699398043641835
523.0,-61.19525959367947
524.0,-60.691121143717076
525.0,-60.1869826937547
526.0,-59.68284424379233
527.0,-59.17870579382994
528.0,-58.674567343867565
529.0,-58.170428893905196
530.0,-57.66629044394282
531.0,-57.16215199398043
532.0,-56.65801354401806
533.0,-56.153875094055685
534.0,-55.649736644093295
535.0,-55.145598194130926
536.0,-54.64145974416855
537.0,-54.137321294206174
538.0,-53.63318284424379
539.0,-53.129044394281415
540.0,-52.62490594431904
541.0,-52.120767494356656
542.0,-51.61662904439428
543.0,-51.112490594431904
544.0,-50.60835214446953
545.0,-50.10421369450715
546.0,-49.60007524454477
547.0,-49.09593679458239
548.0,-48.59179834462002
549.0,-48.087659894657634
550.0,-47.58352144469526
551.0,-47.07938299473288
552.0,-46.575244544770506
553.0,-46.07110609480813
554.0,-45.56696764484575
555.0,-45.06282919488337
556.0,-44.558690744920995
557.0,-44.05455229495861
558.0,-43.55041384499624
559.0,-43.04627539503386
560.0,-42.54213694507148
561.0,-42.03799849510911
562.0,-41.533860045146724
563.0,-41.02972159518435
564.0,-40.52558314522197
565.0,-40.021444695259596
566.0,-39.51730624529721
567.0,-39.01316779533484
568.0,-38.50902934537246
569.0,-38.004890895410085
570.0,-37.5007524454477
571.0,-36.99661399548533
572.0,-36.49247554552295
573.0,-35.98833709556057
574.0,-35.4841986455982
575.0,-34.980060195635815
576.0,-34.47592174567344
577.0,-33.97178329571106
578.0,-33.46764484574869
579.0,-32.963506395786304
580.0,-32.45936794582393
581.0,-31.955229495861552
582.0,-31.451091045899176
583.0,-30.946952595936796
584.0,-30.442814145974417
585.0,-29.93867569601204
586.0,-29.43453724604966
587.0,-28.930398796087285
588.0,-28.426260346124906
589.0,-27.92212189616253
590.0,-27.41798344620015
591.0,-26.91384499623777
592.0,-26.409706546275395
593.0,-25.905568096313015
594.0,-25.401429646350643
595.0,-24.89729119638826
596.0,-24.393152746425887
597.0,-23.889014296463507
598.0,-23.384875846501128
599.0,-22.880737396538752
600.0,-22.376598946576372
601.0,-21.872460496613996
602.0,-21.36832204665162
603.0,-20.86418359668924
604.0,-20.360045146726865
605.0,-19.855906696764485
606.0,-19.351768246802106
607.0,-18.84762979683973
608.0,-18.34349134687735
609.0,-17.839352896914974
610.0,-17.335214446952598
611.0,-16.83107599699022
612.0,-16.326937547027843
613.0,-15.822799097065461
614.0,-15.318660647103087
615.0,-14.587659894657639
616.0,-13.579382994732882
617.0,-12.571106094808126
618.0,-11.562829194883374
619.0,-10.554552294958615
620.0,-10.0
