Time(sec),A21V0SPZ59EEA
0.0,-99.94704925440578
1.0,-99.8086940804338
2.0,-99.50465431540894
3.0,-99.16303660189787
4.0,-98.8214188883868
5.0,-98.47980117487573
6.0,-98.13818346136466
7.0,-97.87342973339358
8.0,-97.70262087663805
9.0,-97.53181201988251
10.0,-97.36100316312698
11.0,-97.19019430637145
12.0,-97.0193854496159
13.0,-96.84857659286038
14.0,-96.67776773610483
15.0,-96.5069588793493
16.0,-96.33615002259377
17.0,-96.20121102575688
18.0,-96.19096249435155
19.0,-96.19096249435155
20.0,-96.19096249435155
21.0,-96.19096249435155
22.0,-96.19096249435155
23.0,-96.19096249435155
24.0,-96.19096249435155
25.0,-96.19096249435155
26.0,-96.19096249435155
27.0,-96.15509263443289
28.0,-95.9945323090827
29.0,-95.82372345232716
30.0,-95.65291459557162
31.0,-95.48210573881609
32.0,-95.31129688206055
33.0,-95.14048802530502
34.0,-94.96967916854949
35.0,-94.79887031179393
36.0,-94.62806145503842
37.0,-94.45725259828286
38.0,-94.28644374152734
39.0,-94.11563488477181
40.0,-93.94482602801627
41.0,-93.77401717126074
42.0,-93.6032083145052
43.0,-93.43239945774965
44.0,-93.26159060099413
45.0,-93.09078174423858
46.0,-92.91997288748306
47.0,-92.74916403072753
48.0,-92.57835517397197
49.0,-92.40754631721646
50.0,-92.2367374604609
51.0,-92.06592860370537
52.0,-91.89511974694985
53.0,-91.7243108901943
54.0,-91.55350203343878
55.0,-91.38269317668323
56.0,-91.21188431992769
57.0,-91.04107546317216
58.0,-90.87026660641662
59.0,-90.6994577496611
60.0,-90.52864889290557
61.0,-90.35784003615002
62.0,-90.1870311793945
63.0,-90.01622232263895
64.0,-89.84541346588341
65.0,-89.67460460912788
66.0,-89.50379575237234
67.0,-89.33298689561681
68.0,-89.16217803886128
69.0,-88.99136918210573
70.0,-88.82056032535021
71.0,-88.64975146859466
72.0,-88.47894261183913
73.0,-88.3081337550836
74.0,-88.13732489832806
75.0,-87.93064618165386
76.0,-87.59927699954812
77.0,-87.25765928603705
78.0,-86.91604157252598
79.0,-86.57442385901491
80.0,-86.23280614550384
81.0,-85.89118843199277
82.0,-85.5495707184817
83.0,-85.20795300497062
84.0,-84.86633529145955
85.0,-84.56058743786716
86.0,-84.37953004970629
87.0,-84.20872119295075
88.0,-84.0379123361952
89.0,-83.86710347943968
90.0,-83.69629462268414
91.0,-83.52548576592861
92.0,-83.35467690917307
93.0,-83.18386805241752
94.0,-83.01305919566201
95.0,-82.84225033890645
96.0,-82.67144148215093
97.0,-82.5006326253954
98.0,-82.32982376863986
99.0,-82.15901491188433
100.0,-81.98820605512879
101.0,-81.81739719837324
102.0,-81.64658834161771
103.0,-81.47577948486217
104.0,-81.30497062810664
105.0,-81.13416177135112
106.0,-80.96335291459556
107.0,-80.79254405784005
108.0,-80.62173520108449
109.0,-80.45092634432896
110.0,-80.28011748757343
111.0,-80.10930863081789
112.0,-79.93849977406236
113.0,-79.76769091730682
114.0,-79.59688206055128
115.0,-79.42607320379575
116.0,-79.25526434704021
117.0,-79.08445549028468
118.0,-78.91364663352915
119.0,-78.7428377767736
120.0,-78.57202892001808
121.0,-78.40122006326253
122.0,-78.230411206507
123.0,-78.05960234975147
124.0,-77.88879349299593
125.0,-77.7179846362404
126.0,-77.54717577948486
127.0,-77.37636692272932
128.0,-77.20555806597379
129.0,-77.03474920921825
130.0,-76.86394035246272
131.0,-76.69313149570719
132.0,-76.52232263895164
133.0,-76.35151378219612
134.0,-76.18070492544058
135.0,-76.00989606868504
136.0,-75.88691369182105
137.0,-75.88178942611839
138.0,-75.81004970628106
139.0,-75.48892905558066
140.0,-75.17293267058292
141.0,-74.98504292815183
142.0,-74.81423407139629
143.0,-74.64342521464076
144.0,-74.47261635788523
145.0,-74.30180750112969
146.0,-74.13099864437416
147.0,-73.96018978761862
148.0,-73.78938093086308
149.0,-73.61857207410755
150.0,-73.447763217352
151.0,-73.27695436059648
152.0,-73.10614550384095
153.0,-72.93533664708539
154.0,-72.76452779032988
155.0,-72.59371893357434
156.0,-72.4229100768188
157.0,-72.27772254857659
158.0,-72.26064166290104
159.0,-72.26064166290104
160.0,-72.26064166290104
161.0,-72.26064166290104
162.0,-72.26064166290104
163.0,-72.26064166290104
164.0,-72.26064166290104
165.0,-72.26064166290104
166.0,-72.26064166290104
167.0,-72.23502033438771
168.0,-72.08129236330772
169.0,-71.9104835065522
170.0,-71.73967464979665
171.0,-71.50737460460913
172.0,-71.16746497966561
173.0,-70.82584726615454
174.0,-70.48422955264347
175.0,-70.1426118391324
176.0,-69.80099412562133
177.0,-69.45937641211026
178.0,-69.11775869859919
179.0,-68.77614098508812
180.0,-68.43452327157704
181.0,-68.15439674649797
182.0,-67.98187980117487
183.0,-67.81107094441934
184.0,-67.6402620876638
185.0,-67.46945323090827
186.0,-67.3037686398554
187.0,-67.25594215996385
188.0,-67.25594215996385
189.0,-67.25594215996385
190.0,-67.25594215996385
191.0,-67.25594215996385
192.0,-67.25594215996385
193.0,-67.25594215996385
194.0,-67.25594215996385
195.0,-67.25594215996385
196.0,-67.25081789426119
197.0,-67.12783551739719
198.0,-66.95702666064167
199.0,-66.78621780388612
200.0,-66.61540894713059
201.0,-66.44460009037506
202.0,-66.27379123361952
203.0,-66.10298237686399
204.0,-65.93217352010845
205.0,-65.76136466335291
206.0,-65.59055580659738
207.0,-65.41974694984184
208.0,-65.24893809308631
209.0,-65.07812923633078
210.0,-64.90732037957522
211.0,-64.73651152281971
212.0,-64.56570266606417
213.0,-64.39489380930863
214.0,-64.2240849525531
215.0,-64.05327609579756
216.0,-63.88246723904202
217.0,-63.71165838228649
218.0,-63.54084952553095
219.0,-63.37004066877542
220.0,-63.199231812019875
221.0,-63.02842295526434
222.0,-62.85761409850882
223.0,-62.68680524175328
224.0,-62.51599638499774
225.0,-62.34518752824221
226.0,-62.17437867148667
227.0,-62.00356981473114
228.0,-61.832760957975594
229.0,-61.66195210122006
230.0,-61.491143244464524
231.0,-61.32033438770899
232.0,-61.149525530953454
233.0,-60.97871667419791
234.0,-60.80790781744239
235.0,-60.637098960686856
236.0,-60.466290103931314
237.0,-60.29548124717578
238.0,-60.124672390420244
239.0,-59.95386353366471
240.0,-59.783054676909174
241.0,-59.61224582015363
242.0,-59.4414369633981
243.0,-59.27062810664256
244.0,-59.09981924988703
245.0,-58.92901039313149
246.0,-58.758201536375964
247.0,-58.58739267962043
248.0,-58.416583822864894
249.0,-58.24577496610935
250.0,-58.07496610935382
251.0,-57.90415725259828
252.0,-57.73334839584275
253.0,-57.56253953908721
254.0,-57.39173068233167
255.0,-57.220921825576134
256.0,-57.0501129688206
257.0,-56.87930411206507
258.0,-56.708495255309536
259.0,-56.537686398554
260.0,-56.366877541798466
261.0,-56.19606868504293
262.0,-56.02525982828739
263.0,-55.854450971531854
264.0,-55.68364211477632
265.0,-55.512833258020784
266.0,-55.34202440126525
267.0,-55.17121554450971
268.0,-55.000406687754186
269.0,-54.82959783099865
270.0,-54.65878897424311
271.0,-54.487980117487574
272.0,-54.31717126073204
273.0,-54.146362403976504
274.0,-53.97555354722097
275.0,-53.80474469046543
276.0,-53.63393583370989
277.0,-53.46312697695436
278.0,-53.29231812019882
279.0,-53.121509263443286
280.0,-52.950700406687744
281.0,-52.77989154993222
282.0,-52.60908269317669
283.0,-52.438273836421146
284.0,-52.26746497966561
285.0,-52.096656122910076
286.0,-51.92584726615454
287.0,-51.755038409399006
288.0,-51.584229552643464
289.0,-51.41342069588793
290.0,-51.242611839132394
291.0,-51.071802982376866
292.0,-50.900994125621324
293.0,-50.73018526886579
294.0,-50.55937641211026
295.0,-50.388567555354726
296.0,-50.217758698599184
297.0,-50.04694984184365
298.0,-49.876140985088114
299.0,-49.70533212833258
300.0,-49.534523271577044
301.0,-49.36371441482151
302.0,-49.19290555806597
303.0,-49.02209670131044
304.0,-48.8512878445549
305.0,-48.68047898779936
306.0,-48.50967013104383
307.0,-48.3388612742883
308.0,-48.16805241753276
309.0,-47.99724356077722
310.0,-47.826434704021686
311.0,-47.65562584726615
312.0,-47.484816990510616
313.0,-47.31400813375508
314.0,-47.143199276999546
315.0,-46.97239042024401
316.0,-46.801581563488476
317.0,-46.63077270673294
318.0,-46.459963849977406
319.0,-46.28915499322187
320.0,-46.118346136466336
321.0,-45.9475372797108
322.0,-45.77672842295526
323.0,-45.605919566199724
324.0,-45.435110709444196
325.0,-45.26430185268866
326.0,-45.09349299593312
327.0,-44.92268413917758
328.0,-44.75187528242205
329.0,-44.58106642566651
330.0,-44.41025756891098
331.0,-44.23944871215544
332.0,-44.06863985539991
333.0,-43.89783099864437
334.0,-43.72702214188884
335.0,-43.556213285133296
336.0,-43.38540442837777
337.0,-43.21459557162223
338.0,-43.0437867148667
339.0,-42.872977858111156
340.0,-42.70216900135562
341.0,-42.4544961590601
342.0,-42.11287844554903
343.0,-41.77126073203796
344.0,-41.42964301852688
345.0,-41.08802530501582
346.0,-40.74640759150474
347.0,-40.40478987799367
348.0,-40.0631721644826
349.0,-39.72155445097153
350.0,-39.379936737460454
351.0,-39.11518300948938
352.0,-38.94437415273384
353.0,-38.77356529597831
354.0,-38.60275643922277
355.0,-38.43194758246724
356.0,-38.2611387257117
357.0,-38.09032986895617
358.0,-37.91952101220063
359.0,-37.74871215544509
360.0,-37.577903298689556
361.0,-37.40709444193403
362.0,-37.23628558517849
363.0,-37.06547672842295
364.0,-36.930537731586085
365.0,-36.92028920018075
366.0,-36.92028920018075
367.0,-36.92028920018075
368.0,-36.92028920018075
369.0,-36.92028920018075
370.0,-36.92028920018075
371.0,-36.92028920018075
372.0,-36.92028920018075
373.0,-36.92028920018075
374.0,-36.884419340262085
375.0,-36.72385901491188
376.0,-36.55305015815635
377.0,-36.38224130140081
378.0,-36.211432444645276
379.0,-36.04062358788974
380.0,-35.869814731134205
381.0,-35.69900587437867
382.0,-35.528197017623135
383.0,-35.35738816086759
384.0,-35.186579304112065
385.0,-35.01577044735652
386.0,-34.844961590600995
387.0,-34.67415273384545
388.0,-34.503343877089925
389.0,-34.33253502033438
390.0,-34.16172616357885
391.0,-33.99091730682331
392.0,-33.820108450067785
393.0,-33.64929959331224
394.0,-33.47849073655671
395.0,-33.30768187980117
396.0,-33.13687302304564
397.0,-32.9660641662901
398.0,-32.79525530953457
399.0,-32.62444645277903
400.0,-32.45363759602349
401.0,-32.28282873926796
402.0,-32.11201988251243
403.0,-31.941211025756893
404.0,-31.77040216900135
405.0,-31.599593312245823
406.0,-31.42878445549028
407.0,-31.25797559873475
408.0,-31.08716674197921
409.0,-30.916357885223682
410.0,-30.74554902846814
411.0,-30.57474017171261
412.0,-30.40393131495707
413.0,-30.233122458201535
414.0,-30.062313601446
415.0,-29.89150474469046
416.0,-29.72069588793493
417.0,-29.549887031179388
418.0,-29.37907817442386
419.0,-29.208269317668318
420.0,-29.03746046091279
421.0,-28.866651604157248
422.0,-28.69584274740172
423.0,-28.525033890646178
424.0,-28.354225033890646
425.0,-28.183416177135108
426.0,-28.012607320379573
427.0,-27.841798463624038
428.0,-27.6709896068685
429.0,-27.500180750112968
430.0,-27.329371893357433
431.0,-27.158563036601898
432.0,-26.98775417984636
433.0,-26.816945323090827
434.0,-26.646136466335285
435.0,-26.475327609579757
436.0,-26.304518752824215
437.0,-26.133709896068684
438.0,-25.962901039313145
439.0,-25.792092182557617
440.0,-25.621283325802075
441.0,-25.450474469046544
442.0,-25.279665612291005
443.0,-25.10885675553547
444.0,-24.938047898779935
445.0,-24.767239042024396
446.0,-24.596430185268865
447.0,-22.982536526585328
448.0,-8.016666666666667
449.0,10.341666666666665
450.0,24.0
451.0,46.71650565262076
452.0,60.56978417266187
453.0,66.92949640287769
454.0,73.28920863309352
455.0,79.64892086330936
456.0,86.00863309352518
457.0,92.36834532374101
458.0,96.81187050359713
459.0,75.84
460.0,47.276198830409356
461.0,15.669598595848594
462.0,-10.311436229462545
463.0,-36.78261234121915
464.0,-56.722400676246835
465.0,-73.87
466.0,-88.39666666666668
467.0,-95.5
468.0,-95.5
469.0,-97.325
470.0,-100.0
471.0,-100.0
472.0,-100.0
473.0,-100.0
474.0,-100.0
475.0,-100.0
476.0,-100.0
477.0,-100.0
478.0,-100.0
479.0,-100.0
480.0,-100.0
481.0,-100.0
482.0,-100.0
483.0,-100.0
484.0,-100.0
485.0,-100.0
486.0,-100.0
487.0,-100.0
488.0,-100.0
489.0,-100.0
490.0,-100.0
491.0,-100.0
492.0,-100.0
493.0,-100.0
494.0,-100.0
495.0,-100.0
496.0,-100.0
497.0,-100.0
498.0,-100.0
499.0,-100.0
500.0,-100.0
501.0,-100.0
502.0,-100.0
503.0,-100.0
504.0,-100.0
505.0,-100.0
506.0,-100.0
507.0,-100.0
508.0,-100.0
509.0,-100.0
510.0,-100.0
511.0,-100.0
512.0,-100.0
513.0,-100.0
514.0,-100.0
515.0,-100.0
516.0,-100.0
517.0,-100.0
518.0,-100.0
519.0,-100.0
520.0,-100.0
521.0,-100.0
522.0,-100.0
523.0,-100.0
524.0,-100.0
525.0,-100.0
526.0,-100.0
527.0,-100.0
528.0,-100.0
529.0,-100.0
530.0,-100.0
531.0,-100.0
532.0,-100.0
533.0,-100.0
534.0,-100.0
535.0,-100.0
536.0,-100.0
537.0,-100.0
538.0,-100.0
539.0,-100.0
540.0,-100.0
541.0,-100.0
542.0,-100.0
543.0,-100.0
544.0,-100.0
545.0,-100.0
546.0,-100.0
547.0,-100.0
548.0,-100.0
549.0,-100.0
550.0,-100.0
551.0,-100.0
552.0,-100.0
553.0,-100.0
554.0,-100.0
555.0,-100.0
556.0,-100.0
557.0,-100.0
558.0,-100.0
559.0,-100.0
560.0,-100.0
561.0,-100.0
562.0,-100.0
563.0,-100.0
564.0,-100.0
565.0,-100.0
566.0,-100.0
567.0,-100.0
