Time(sec),Data
0.0,-3.8400000000000034
1.0,-3.8400000000000034
2.0,-3.8400000000000034
3.0,-3.8400000000000034
4.0,-3.8400000000000034
5.0,-3.8400000000000034
6.0,-3.8400000000000034
7.0,1.2155384615384586
8.0,6.2710769230769206
9.0,11.326615384615383
10.0,16.382153846153845
11.0,21.437692307692306
12.0,26.49323076923077
13.0,31.54876923076923
14.0,36.60430769230769
15.0,41.65984615384615
16.0,46.715384615384615
17.0,51.770923076923076
18.0,56.826461538461544
19.0,61.882000000000005
20.0,61.882000000000005
21.0,61.882000000000005
22.0,61.882000000000005
23.0,61.882000000000005
24.0,61.882000000000005
25.0,61.882000000000005
26.0,61.882000000000005
27.0,61.882000000000005
28.0,61.882000000000005
29.0,61.882000000000005
30.0,61.882000000000005
31.0,61.882000000000005
32.0,61.882000000000005
33.0,61.882000000000005
34.0,61.882000000000005
35.0,61.882000000000005
36.0,61.882000000000005
37.0,61.882000000000005
38.0,61.882000000000005
39.0,61.882000000000005
40.0,61.882000000000005
41.0,61.882000000000005
42.0,61.882000000000005
43.0,61.882000000000005
44.0,61.882000000000005
45.0,54.98533333333334
46.0,48.088666666666676
47.0,41.19200000000001
48.0,41.19200000000001
49.0,38.03800000000001
50.0,34.88400000000001
51.0,31.73000000000001
52.0,28.57600000000001
53.0,25.42200000000001
54.0,25.42200000000001
55.0,25.42200000000001
56.0,25.42200000000001
57.0,25.42200000000001
58.0,24.380000000000003
59.0,23.337999999999994
60.0,27.71999999999999
61.0,32.10199999999999
62.0,36.483999999999995
63.0,40.86599999999999
64.0,45.24799999999999
65.0,45.24799999999999
66.0,45.24799999999999
67.0,45.24799999999999
68.0,45.24799999999999
69.0,45.24799999999999
70.0,45.24799999999999
71.0,45.24799999999999
72.0,45.24799999999999
73.0,45.24799999999999
74.0,45.24799999999999
75.0,45.24799999999999
76.0,45.24799999999999
77.0,45.24799999999999
78.0,45.24799999999999
79.0,45.24799999999999
80.0,45.24799999999999
81.0,45.24799999999999
82.0,45.24799999999999
83.0,45.24799999999999
84.0,45.24799999999999
85.0,45.24799999999999
86.0,45.24799999999999
87.0,45.24799999999999
88.0,45.24799999999999
89.0,45.24799999999999
90.0,45.24799999999999
91.0,45.24799999999999
92.0,45.24799999999999
93.0,45.24799999999999
94.0,45.24799999999999
95.0,45.24799999999999
96.0,45.24799999999999
97.0,45.24799999999999
98.0,45.24799999999999
99.0,45.24799999999999
100.0,45.24799999999999
101.0,45.24799999999999
102.0,45.24799999999999
103.0,45.24799999999999
104.0,45.24799999999999
105.0,45.24799999999999
106.0,45.24799999999999
107.0,45.24799999999999
108.0,45.24799999999999
109.0,45.24799999999999
110.0,45.24799999999999
111.0,45.24799999999999
112.0,45.24799999999999
113.0,45.24799999999999
114.0,45.24799999999999
115.0,45.24799999999999
116.0,45.24799999999999
117.0,45.24799999999999
118.0,45.24799999999999
119.0,45.24799999999999
120.0,45.24799999999999
121.0,45.24799999999999
122.0,45.24799999999999
123.0,45.24799999999999
124.0,45.24799999999999
125.0,45.24799999999999
126.0,45.24799999999999
127.0,45.24799999999999
128.0,39.38199999999999
129.0,33.51599999999999
130.0,27.64999999999999
131.0,27.64999999999999
132.0,27.64999999999999
133.0,27.64999999999999
134.0,27.64999999999999
135.0,27.64999999999999
136.0,27.64999999999999
137.0,27.64999999999999
138.0,27.64999999999999
139.0,27.64999999999999
140.0,27.64999999999999
141.0,27.64999999999999
142.0,27.64999999999999
143.0,27.64999999999999
144.0,27.64999999999999
145.0,27.64999999999999
146.0,27.64999999999999
147.0,27.64999999999999
148.0,27.64999999999999
149.0,27.64999999999999
150.0,27.64999999999999
151.0,27.64999999999999
152.0,27.64999999999999
153.0,27.64999999999999
154.0,27.64999999999999
155.0,27.64999999999999
156.0,27.64999999999999
157.0,27.64999999999999
158.0,27.64999999999999
159.0,27.64999999999999
160.0,27.64999999999999
161.0,27.64999999999999
162.0,27.64999999999999
163.0,27.64999999999999
164.0,27.64999999999999
165.0,27.64999999999999
166.0,27.64999999999999
167.0,27.64999999999999
168.0,27.64999999999999
169.0,27.64999999999999
170.0,27.64999999999999
171.0,27.64999999999999
172.0,27.64999999999999
173.0,27.64999999999999
174.0,27.64999999999999
175.0,27.64999999999999
176.0,27.64999999999999
177.0,27.64999999999999
178.0,27.64999999999999
179.0,27.64999999999999
180.0,27.64999999999999
181.0,27.64999999999999
182.0,27.64999999999999
183.0,27.64999999999999
184.0,27.64999999999999
185.0,27.64999999999999
186.0,27.64999999999999
187.0,27.64999999999999
188.0,27.64999999999999
189.0,27.64999999999999
190.0,27.64999999999999
191.0,27.64999999999999
192.0,27.64999999999999
193.0,27.64999999999999
194.0,27.64999999999999
195.0,27.64999999999999
196.0,27.64999999999999
197.0,27.64999999999999
198.0,27.64999999999999
199.0,27.64999999999999
200.0,27.64999999999999
201.0,27.64999999999999
202.0,27.64999999999999
203.0,27.64999999999999
204.0,27.64999999999999
205.0,27.64999999999999
206.0,27.64999999999999
207.0,27.64999999999999
208.0,27.64999999999999
209.0,27.64999999999999
210.0,27.64999999999999
211.0,27.64999999999999
212.0,27.64999999999999
213.0,27.64999999999999
214.0,27.64999999999999
215.0,27.64999999999999
216.0,27.64999999999999
217.0,27.64999999999999
218.0,27.64999999999999
219.0,27.64999999999999
220.0,27.64999999999999
221.0,27.64999999999999
222.0,27.64999999999999
223.0,27.64999999999999
224.0,27.64999999999999
225.0,27.64999999999999
226.0,27.64999999999999
227.0,14.958000000000006
228.0,2.2660000000000196
229.0,2.2660000000000196
230.0,2.2660000000000196
231.0,2.2660000000000196
232.0,2.2660000000000196
233.0,2.2660000000000196
234.0,2.2660000000000196
235.0,2.2660000000000196
236.0,2.2660000000000196
237.0,19.135333333333346
238.0,36.00466666666667
239.0,52.873999999999995
240.0,52.873999999999995
241.0,52.873999999999995
242.0,52.873999999999995
243.0,52.873999999999995
244.0,39.60133333333333
245.0,26.328666666666663
246.0,13.055999999999997
247.0,13.055999999999997
248.0,13.055999999999997
249.0,13.055999999999997
250.0,13.055999999999997
251.0,13.055999999999997
252.0,12.126000000000005
253.0,11.196000000000012
254.0,11.196000000000012
255.0,11.196000000000012
256.0,24.83133333333334
257.0,38.46666666666667
258.0,52.102000000000004
259.0,52.102000000000004
260.0,52.102000000000004
261.0,52.102000000000004
262.0,28.734
263.0,5.366
264.0,5.366
265.0,18.147333333333336
266.0,30.928666666666672
267.0,43.71000000000001
268.0,43.71000000000001
269.0,43.71000000000001
270.0,43.71000000000001
271.0,43.71000000000001
272.0,43.71000000000001
273.0,43.71000000000001
274.0,43.71000000000001
275.0,43.71000000000001
276.0,43.71000000000001
277.0,43.71000000000001
278.0,43.71000000000001
279.0,43.71000000000001
280.0,43.71000000000001
281.0,43.71000000000001
282.0,43.71000000000001
283.0,43.71000000000001
284.0,43.71000000000001
285.0,43.71000000000001
286.0,34.8785
287.0,26.046999999999997
288.0,17.21549999999999
289.0,8.383999999999986
290.0,8.383999999999986
291.0,8.383999999999986
292.0,8.383999999999986
293.0,8.383999999999986
294.0,8.383999999999986
295.0,8.383999999999986
296.0,8.383999999999986
297.0,8.383999999999986
298.0,8.383999999999986
299.0,8.383999999999986
300.0,8.383999999999986
301.0,8.383999999999986
302.0,8.383999999999986
303.0,8.383999999999986
304.0,8.383999999999986
305.0,8.383999999999986
306.0,8.383999999999986
307.0,8.383999999999986
308.0,8.383999999999986
309.0,8.383999999999986
310.0,20.938000000000002
311.0,33.49200000000002
312.0,33.49200000000002
313.0,33.49200000000002
314.0,33.49200000000002
315.0,33.49200000000002
316.0,33.49200000000002
317.0,33.49200000000002
318.0,33.49200000000002
319.0,33.49200000000002
320.0,33.49200000000002
321.0,33.49200000000002
322.0,33.49200000000002
323.0,33.49200000000002
324.0,33.49200000000002
325.0,33.49200000000002
326.0,33.49200000000002
327.0,33.49200000000002
328.0,33.49200000000002
329.0,33.49200000000002
330.0,33.49200000000002
331.0,33.49200000000002
332.0,33.49200000000002
333.0,33.49200000000002
334.0,33.49200000000002
335.0,33.49200000000002
336.0,33.49200000000002
337.0,33.49200000000002
338.0,33.49200000000002
339.0,33.49200000000002
340.0,33.49200000000002
341.0,33.49200000000002
342.0,33.49200000000002
343.0,33.49200000000002
344.0,33.49200000000002
345.0,33.49200000000002
346.0,33.49200000000002
347.0,33.49200000000002
348.0,33.49200000000002
349.0,33.49200000000002
350.0,33.49200000000002
351.0,33.49200000000002
352.0,33.49200000000002
353.0,33.49200000000002
354.0,33.49200000000002
355.0,33.49200000000002
356.0,33.49200000000002
357.0,33.49200000000002
358.0,33.49200000000002
359.0,33.49200000000002
360.0,54.82000000000001
361.0,76.148
362.0,97.476
363.0,97.476
364.0,97.476
365.0,97.476
366.0,97.476
367.0,97.476
368.0,97.476
369.0,97.476
370.0,97.476
371.0,97.476
372.0,97.476
373.0,97.476
374.0,97.476
375.0,97.476
376.0,97.476
377.0,97.476
378.0,97.476
379.0,97.476
380.0,97.476
381.0,97.476
382.0,97.476
383.0,97.476
384.0,97.476
385.0,97.476
386.0,97.476
387.0,97.476
388.0,97.476
389.0,97.476
390.0,97.476
391.0,97.476
392.0,97.476
393.0,97.476
394.0,97.476
395.0,97.476
396.0,97.476
397.0,97.476
398.0,97.476
399.0,97.476
400.0,97.476
401.0,97.476
402.0,97.476
403.0,97.476
404.0,97.476
405.0,97.476
406.0,97.476
407.0,97.476
408.0,97.476
409.0,97.476
410.0,97.476
411.0,97.476
412.0,97.476
413.0,97.476
414.0,97.476
415.0,97.476
416.0,97.476
417.0,97.476
418.0,97.476
419.0,97.476
420.0,97.476
421.0,97.476
422.0,97.476
423.0,97.476
424.0,97.476
425.0,97.476
426.0,97.476
427.0,97.476
428.0,97.476
429.0,97.476
430.0,97.476
431.0,97.476
432.0,97.476
433.0,97.476
434.0,97.476
435.0,97.476
436.0,97.476
437.0,97.476
438.0,97.476
439.0,97.476
440.0,97.476
441.0,97.476
442.0,97.476
443.0,97.476
444.0,97.476
445.0,97.476
446.0,97.476
447.0,97.476
448.0,97.476
449.0,97.476
450.0,97.476
451.0,97.476
452.0,97.476
453.0,97.476
454.0,97.476
455.0,97.476
456.0,97.476
457.0,97.476
458.0,97.476
459.0,97.476
460.0,97.476
461.0,97.476
462.0,97.476
463.0,97.476
464.0,97.476
465.0,81.41828571428572
466.0,65.36057142857143
467.0,49.302857142857135
468.0,33.24514285714285
469.0,17.18742857142857
470.0,1.1297142857142717
471.0,-14.927999999999997
472.0,-14.927999999999997
473.0,-14.927999999999997
474.0,-14.927999999999997
475.0,-9.190000000000001
476.0,-3.4520000000000053
477.0,2.2859999999999907
478.0,8.023999999999987
479.0,8.023999999999987
480.0,8.023999999999987
481.0,8.023999999999987
482.0,8.023999999999987
483.0,8.023999999999987
484.0,8.023999999999987
485.0,8.023999999999987
486.0,8.023999999999987
487.0,8.023999999999987
488.0,8.023999999999987
489.0,8.023999999999987
490.0,8.023999999999987
491.0,8.023999999999987
492.0,8.023999999999987
493.0,8.023999999999987
494.0,8.023999999999987
495.0,8.023999999999987
496.0,8.023999999999987
497.0,8.023999999999987
498.0,8.023999999999987
499.0,8.023999999999987
500.0,8.023999999999987
501.0,8.023999999999987
502.0,8.023999999999987
503.0,8.023999999999987
504.0,8.023999999999987
505.0,8.023999999999987
506.0,8.023999999999987
507.0,8.023999999999987
508.0,8.023999999999987
509.0,8.023999999999987
510.0,8.023999999999987
511.0,8.023999999999987
512.0,8.023999999999987
513.0,8.023999999999987
514.0,8.023999999999987
515.0,8.023999999999987
516.0,8.023999999999987
517.0,8.023999999999987
518.0,8.023999999999987
519.0,8.023999999999987
520.0,8.023999999999987
521.0,8.023999999999987
522.0,8.023999999999987
523.0,8.023999999999987
524.0,8.023999999999987
525.0,8.023999999999987
526.0,8.023999999999987
527.0,8.023999999999987
528.0,8.023999999999987
529.0,8.023999999999987
530.0,8.023999999999987
531.0,8.023999999999987
532.0,8.023999999999987
533.0,8.023999999999987
534.0,8.023999999999987
535.0,8.023999999999987
536.0,8.023999999999987
537.0,8.023999999999987
538.0,8.023999999999987
539.0,8.023999999999987
540.0,8.023999999999987
541.0,8.023999999999987
542.0,8.023999999999987
543.0,8.023999999999987
544.0,8.023999999999987
545.0,8.023999999999987
546.0,8.023999999999987
547.0,8.023999999999987
548.0,8.023999999999987
549.0,8.023999999999987
550.0,8.023999999999987
551.0,8.023999999999987
552.0,8.023999999999987
553.0,8.023999999999987
554.0,8.023999999999987
555.0,8.023999999999987
556.0,8.023999999999987
557.0,8.023999999999987
558.0,8.023999999999987
559.0,8.023999999999987
560.0,8.023999999999987
561.0,8.023999999999987
562.0,8.023999999999987
563.0,8.023999999999987
564.0,8.023999999999987
565.0,8.023999999999987
566.0,8.023999999999987
567.0,8.023999999999987
