Time(sec),Data
0.0,-22.08
1.0,-22.08
2.0,-22.08
3.0,-22.08
4.0,-22.08
5.0,-22.08
6.0,-22.08
7.0,-22.08
8.0,-22.08
9.0,-22.08
10.0,-22.08
11.0,-22.08
12.0,-22.08
13.0,-22.08
14.0,-22.08
15.0,-22.08
16.0,-22.08
17.0,-22.08
18.0,-22.08
19.0,-22.08
20.0,-22.08
21.0,-22.08
22.0,-18.63244444444444
23.0,-15.184888888888885
24.0,-11.73733333333333
25.0,-8.289777777777774
26.0,-4.842222222222219
27.0,-1.3946666666666623
28.0,2.0528888888888943
29.0,5.500444444444451
30.0,8.948000000000008
31.0,8.948000000000008
32.0,8.948000000000008
33.0,8.948000000000008
34.0,8.948000000000008
35.0,8.948000000000008
36.0,8.948000000000008
37.0,8.948000000000008
38.0,8.948000000000008
39.0,8.948000000000008
40.0,8.948000000000008
41.0,8.948000000000008
42.0,8.948000000000008
43.0,11.153400000000008
44.0,13.358800000000008
45.0,15.564200000000007
46.0,17.769600000000008
47.0,19.97500000000001
48.0,22.180400000000006
49.0,24.385800000000007
50.0,26.591200000000008
51.0,28.79660000000001
52.0,31.00200000000001
53.0,31.00200000000001
54.0,31.00200000000001
55.0,31.00200000000001
56.0,31.00200000000001
57.0,31.00200000000001
58.0,31.00200000000001
59.0,31.00200000000001
60.0,31.00200000000001
61.0,31.00200000000001
62.0,31.00200000000001
63.0,31.00200000000001
64.0,31.00200000000001
65.0,31.00200000000001
66.0,31.00200000000001
67.0,31.00200000000001
68.0,31.00200000000001
69.0,31.00200000000001
70.0,31.00200000000001
71.0,31.00200000000001
72.0,31.00200000000001
73.0,31.00200000000001
74.0,31.00200000000001
75.0,31.00200000000001
76.0,31.00200000000001
77.0,31.00200000000001
78.0,31.00200000000001
79.0,31.00200000000001
80.0,18.638666666666673
81.0,6.275333333333339
82.0,-6.087999999999994
83.0,-6.087999999999994
84.0,-8.758749999999996
85.0,-11.429499999999997
86.0,-14.100249999999999
87.0,-16.771
88.0,-19.441750000000003
89.0,-22.112500000000004
90.0,-24.783250000000006
91.0,-27.454000000000008
92.0,-27.454000000000008
93.0,-15.37333333333334
94.0,-3.2926666666666726
95.0,8.787999999999997
96.0,8.787999999999997
97.0,8.787999999999997
98.0,8.787999999999997
99.0,8.787999999999997
100.0,8.787999999999997
101.0,8.787999999999997
102.0,8.787999999999997
103.0,8.787999999999997
104.0,8.787999999999997
105.0,8.787999999999997
106.0,8.787999999999997
107.0,8.787999999999997
108.0,8.787999999999997
109.0,8.787999999999997
110.0,8.787999999999997
111.0,8.787999999999997
112.0,8.787999999999997
113.0,8.787999999999997
114.0,8.787999999999997
115.0,8.787999999999997
116.0,8.787999999999997
117.0,8.787999999999997
118.0,8.787999999999997
119.0,8.787999999999997
120.0,8.787999999999997
121.0,8.787999999999997
122.0,8.787999999999997
123.0,8.787999999999997
124.0,8.787999999999997
125.0,8.787999999999997
126.0,8.787999999999997
127.0,8.787999999999997
128.0,8.787999999999997
129.0,8.787999999999997
130.0,8.787999999999997
131.0,8.787999999999997
132.0,8.787999999999997
133.0,8.787999999999997
134.0,8.787999999999997
135.0,8.787999999999997
136.0,8.787999999999997
137.0,8.787999999999997
138.0,8.787999999999997
139.0,8.787999999999997
140.0,8.787999999999997
141.0,8.787999999999997
142.0,8.787999999999997
143.0,8.787999999999997
144.0,8.787999999999997
145.0,8.787999999999997
146.0,8.787999999999997
147.0,8.787999999999997
148.0,8.787999999999997
149.0,8.787999999999997
150.0,8.787999999999997
151.0,8.787999999999997
152.0,8.787999999999997
153.0,8.787999999999997
154.0,7.861999999999999
155.0,6.936000000000003
156.0,6.010000000000005
157.0,5.0840000000000085
158.0,4.158000000000011
159.0,3.2320000000000135
160.0,3.2320000000000135
161.0,9.499714285714298
162.0,15.76742857142858
163.0,22.035142857142862
164.0,28.302857142857146
165.0,34.57057142857143
166.0,40.83828571428571
167.0,47.105999999999995
168.0,47.105999999999995
169.0,47.105999999999995
170.0,47.105999999999995
171.0,47.105999999999995
172.0,47.105999999999995
173.0,47.105999999999995
174.0,47.105999999999995
175.0,47.105999999999995
176.0,47.105999999999995
177.0,47.105999999999995
178.0,47.105999999999995
179.0,47.105999999999995
180.0,47.105999999999995
181.0,47.105999999999995
182.0,47.105999999999995
183.0,47.105999999999995
184.0,47.105999999999995
185.0,47.105999999999995
186.0,47.105999999999995
187.0,47.105999999999995
188.0,47.105999999999995
189.0,47.105999999999995
190.0,47.105999999999995
191.0,47.105999999999995
192.0,47.105999999999995
193.0,47.105999999999995
194.0,47.105999999999995
195.0,47.105999999999995
196.0,47.105999999999995
197.0,47.105999999999995
198.0,47.105999999999995
199.0,47.105999999999995
200.0,47.105999999999995
201.0,47.105999999999995
202.0,47.105999999999995
203.0,47.105999999999995
204.0,47.105999999999995
205.0,47.105999999999995
206.0,47.105999999999995
207.0,47.105999999999995
208.0,47.105999999999995
209.0,47.105999999999995
210.0,47.105999999999995
211.0,47.105999999999995
212.0,47.105999999999995
213.0,47.105999999999995
214.0,47.105999999999995
215.0,47.105999999999995
216.0,47.105999999999995
217.0,47.105999999999995
218.0,47.105999999999995
219.0,47.105999999999995
220.0,47.105999999999995
221.0,47.105999999999995
222.0,47.105999999999995
223.0,47.105999999999995
224.0,47.105999999999995
225.0,47.105999999999995
226.0,47.105999999999995
227.0,47.105999999999995
228.0,47.105999999999995
229.0,47.105999999999995
230.0,47.105999999999995
231.0,47.105999999999995
232.0,47.105999999999995
233.0,47.105999999999995
234.0,47.105999999999995
235.0,47.105999999999995
236.0,47.105999999999995
237.0,47.105999999999995
238.0,47.105999999999995
239.0,47.105999999999995
240.0,47.105999999999995
241.0,47.105999999999995
242.0,47.105999999999995
243.0,47.105999999999995
244.0,47.105999999999995
245.0,47.105999999999995
246.0,47.105999999999995
247.0,47.105999999999995
248.0,47.105999999999995
249.0,47.105999999999995
250.0,47.105999999999995
251.0,47.105999999999995
252.0,47.105999999999995
253.0,47.105999999999995
254.0,47.105999999999995
255.0,47.105999999999995
256.0,47.105999999999995
257.0,47.105999999999995
258.0,47.105999999999995
259.0,47.105999999999995
260.0,47.105999999999995
261.0,47.105999999999995
262.0,47.105999999999995
263.0,47.105999999999995
264.0,47.105999999999995
265.0,47.105999999999995
266.0,47.105999999999995
267.0,47.105999999999995
268.0,47.105999999999995
269.0,47.105999999999995
270.0,47.105999999999995
271.0,47.105999999999995
272.0,47.105999999999995
273.0,47.105999999999995
274.0,47.105999999999995
275.0,47.105999999999995
276.0,47.105999999999995
277.0,47.105999999999995
278.0,47.105999999999995
279.0,47.105999999999995
280.0,47.105999999999995
281.0,47.105999999999995
282.0,47.105999999999995
283.0,47.105999999999995
284.0,47.105999999999995
285.0,47.105999999999995
286.0,47.105999999999995
287.0,47.105999999999995
288.0,47.105999999999995
289.0,47.105999999999995
290.0,47.105999999999995
291.0,47.105999999999995
292.0,47.105999999999995
293.0,47.105999999999995
294.0,47.105999999999995
295.0,47.105999999999995
296.0,47.105999999999995
297.0,47.105999999999995
298.0,47.105999999999995
299.0,47.105999999999995
300.0,47.105999999999995
301.0,47.105999999999995
302.0,47.105999999999995
303.0,47.105999999999995
304.0,47.105999999999995
305.0,47.105999999999995
306.0,47.105999999999995
307.0,47.105999999999995
308.0,47.105999999999995
309.0,47.105999999999995
310.0,47.105999999999995
311.0,47.105999999999995
312.0,47.105999999999995
313.0,47.105999999999995
314.0,47.105999999999995
315.0,47.105999999999995
316.0,47.105999999999995
317.0,47.105999999999995
318.0,47.105999999999995
319.0,47.105999999999995
320.0,47.105999999999995
321.0,47.105999999999995
322.0,47.105999999999995
323.0,47.105999999999995
324.0,47.105999999999995
325.0,47.105999999999995
326.0,47.105999999999995
327.0,47.105999999999995
328.0,47.105999999999995
329.0,47.105999999999995
330.0,47.105999999999995
331.0,47.105999999999995
332.0,47.105999999999995
333.0,47.105999999999995
334.0,47.105999999999995
335.0,47.105999999999995
336.0,47.105999999999995
337.0,47.105999999999995
338.0,47.105999999999995
339.0,47.105999999999995
340.0,47.105999999999995
341.0,47.105999999999995
342.0,47.105999999999995
343.0,47.105999999999995
344.0,47.105999999999995
345.0,47.105999999999995
346.0,47.105999999999995
347.0,47.105999999999995
348.0,47.105999999999995
349.0,47.105999999999995
350.0,47.105999999999995
351.0,47.105999999999995
352.0,47.105999999999995
353.0,47.105999999999995
354.0,47.105999999999995
355.0,47.105999999999995
356.0,47.105999999999995
357.0,47.105999999999995
358.0,47.105999999999995
359.0,47.105999999999995
360.0,47.105999999999995
361.0,47.105999999999995
362.0,47.105999999999995
363.0,47.105999999999995
364.0,47.105999999999995
365.0,47.105999999999995
366.0,47.105999999999995
367.0,47.105999999999995
368.0,47.105999999999995
369.0,47.105999999999995
370.0,47.105999999999995
371.0,47.105999999999995
372.0,47.105999999999995
373.0,47.105999999999995
374.0,47.105999999999995
375.0,47.105999999999995
376.0,47.105999999999995
377.0,47.105999999999995
378.0,47.105999999999995
379.0,47.105999999999995
380.0,43.79533333333333
381.0,40.48466666666667
382.0,37.17400000000001
383.0,38.086000000000006
384.0,38.998000000000005
385.0,39.910000000000004
386.0,40.822
387.0,40.822
388.0,40.822
389.0,40.822
390.0,40.822
391.0,40.822
392.0,40.822
393.0,40.822
394.0,40.822
395.0,40.822
396.0,40.822
397.0,40.822
398.0,40.822
399.0,40.822
400.0,40.418
401.0,40.01399999999999
402.0,39.609999999999985
403.0,39.609999999999985
404.0,39.609999999999985
405.0,39.609999999999985
406.0,39.609999999999985
407.0,39.609999999999985
408.0,39.609999999999985
409.0,39.609999999999985
410.0,39.609999999999985
411.0,39.609999999999985
412.0,39.609999999999985
413.0,39.609999999999985
414.0,39.609999999999985
415.0,39.609999999999985
416.0,39.609999999999985
417.0,39.609999999999985
418.0,39.609999999999985
419.0,39.609999999999985
420.0,39.609999999999985
421.0,39.609999999999985
422.0,39.609999999999985
423.0,39.609999999999985
424.0,39.609999999999985
425.0,39.609999999999985
426.0,39.609999999999985
427.0,39.609999999999985
428.0,39.609999999999985
429.0,39.609999999999985
430.0,39.609999999999985
431.0,39.609999999999985
432.0,39.609999999999985
433.0,39.609999999999985
434.0,39.609999999999985
435.0,39.609999999999985
436.0,39.609999999999985
437.0,39.609999999999985
438.0,39.609999999999985
439.0,39.609999999999985
440.0,39.609999999999985
441.0,39.609999999999985
442.0,39.609999999999985
443.0,39.609999999999985
444.0,39.609999999999985
445.0,39.609999999999985
446.0,39.609999999999985
447.0,39.609999999999985
448.0,39.609999999999985
449.0,39.609999999999985
450.0,39.609999999999985
451.0,39.609999999999985
452.0,39.609999999999985
453.0,39.609999999999985
454.0,39.609999999999985
455.0,39.609999999999985
456.0,39.609999999999985
457.0,39.609999999999985
458.0,39.609999999999985
459.0,39.609999999999985
460.0,39.609999999999985
461.0,39.609999999999985
462.0,39.609999999999985
463.0,39.609999999999985
464.0,39.609999999999985
465.0,39.609999999999985
466.0,39.609999999999985
467.0,39.609999999999985
468.0,39.609999999999985
469.0,39.609999999999985
470.0,39.609999999999985
471.0,39.609999999999985
472.0,39.609999999999985
473.0,39.609999999999985
474.0,39.609999999999985
475.0,39.609999999999985
476.0,39.609999999999985
477.0,39.609999999999985
478.0,39.609999999999985
479.0,39.609999999999985
480.0,39.609999999999985
481.0,39.609999999999985
482.0,39.609999999999985
483.0,39.609999999999985
484.0,39.609999999999985
485.0,39.609999999999985
486.0,39.609999999999985
487.0,39.609999999999985
488.0,39.609999999999985
489.0,39.609999999999985
490.0,39.609999999999985
491.0,39.609999999999985
492.0,39.609999999999985
493.0,39.609999999999985
494.0,39.609999999999985
495.0,39.609999999999985
496.0,39.609999999999985
497.0,39.609999999999985
498.0,39.609999999999985
499.0,39.609999999999985
500.0,39.609999999999985
501.0,39.609999999999985
502.0,39.609999999999985
503.0,39.609999999999985
504.0,39.609999999999985
505.0,39.609999999999985
506.0,39.609999999999985
507.0,39.609999999999985
508.0,39.609999999999985
509.0,39.609999999999985
510.0,39.609999999999985
511.0,39.609999999999985
512.0,39.609999999999985
513.0,39.609999999999985
514.0,39.609999999999985
515.0,39.609999999999985
516.0,39.609999999999985
517.0,39.609999999999985
518.0,39.609999999999985
519.0,39.609999999999985
520.0,39.609999999999985
521.0,39.609999999999985
522.0,39.609999999999985
523.0,39.609999999999985
524.0,48.78999999999999
525.0,57.97
526.0,57.97
527.0,57.97
528.0,57.97
529.0,57.97
530.0,34.522000000000006
531.0,11.074000000000012
532.0,15.654666666666671
533.0,20.23533333333333
534.0,24.81599999999999
535.0,24.81599999999999
536.0,24.81599999999999
537.0,24.81599999999999
538.0,24.81599999999999
539.0,24.81599999999999
540.0,24.81599999999999
541.0,24.81599999999999
542.0,24.81599999999999
543.0,24.81599999999999
544.0,24.81599999999999
545.0,24.81599999999999
546.0,24.81599999999999
547.0,24.81599999999999
548.0,24.81599999999999
549.0,24.81599999999999
550.0,24.81599999999999
551.0,24.81599999999999
552.0,24.81599999999999
553.0,24.81599999999999
554.0,24.81599999999999
555.0,24.81599999999999
556.0,24.81599999999999
557.0,24.81599999999999
558.0,24.81599999999999
559.0,24.81599999999999
560.0,24.81599999999999
561.0,24.81599999999999
562.0,24.81599999999999
563.0,24.81599999999999
564.0,24.81599999999999
565.0,24.81599999999999
566.0,24.81599999999999
567.0,24.81599999999999
568.0,24.81599999999999
569.0,24.81599999999999
570.0,24.81599999999999
571.0,24.81599999999999
572.0,24.81599999999999
573.0,24.81599999999999
574.0,24.81599999999999
575.0,24.81599999999999
576.0,24.81599999999999
577.0,24.81599999999999
578.0,24.81599999999999
579.0,24.81599999999999
580.0,24.81599999999999
581.0,24.81599999999999
582.0,24.81599999999999
583.0,24.81599999999999
584.0,24.81599999999999
