Time(sec),Data
0.0,-13.992000000000004
1.0,-13.992000000000004
2.0,-13.992000000000004
3.0,-13.992000000000004
4.0,-13.992000000000004
5.0,-13.992000000000004
6.0,-13.992000000000004
7.0,-13.992000000000004
8.0,-13.992000000000004
9.0,-13.992000000000004
10.0,-13.992000000000004
11.0,-13.992000000000004
12.0,-13.992000000000004
13.0,-13.992000000000004
14.0,-13.992000000000004
15.0,-13.992000000000004
16.0,-13.992000000000004
17.0,-13.992000000000004
18.0,-13.992000000000004
19.0,-13.992000000000004
20.0,-13.992000000000004
21.0,-13.992000000000004
22.0,-12.429111111111116
23.0,-10.866222222222227
24.0,-9.303333333333336
25.0,-7.740444444444448
26.0,-6.177555555555559
27.0,-4.614666666666668
28.0,-3.0517777777777795
29.0,-1.4888888888888907
30.0,0.07399999999999807
31.0,0.07399999999999807
32.0,0.07399999999999807
33.0,0.07399999999999807
34.0,0.07399999999999807
35.0,0.07399999999999807
36.0,0.07399999999999807
37.0,0.07399999999999807
38.0,0.07399999999999807
39.0,0.07399999999999807
40.0,0.07399999999999807
41.0,0.07399999999999807
42.0,0.07399999999999807
43.0,4.5265999999999975
44.0,8.979199999999997
45.0,13.431799999999996
46.0,17.884399999999996
47.0,22.336999999999996
48.0,26.789599999999993
49.0,31.242199999999993
50.0,35.694799999999994
51.0,40.14739999999999
52.0,44.599999999999994
53.0,44.599999999999994
54.0,44.599999999999994
55.0,44.599999999999994
56.0,44.599999999999994
57.0,44.599999999999994
58.0,44.599999999999994
59.0,44.599999999999994
60.0,44.599999999999994
61.0,44.599999999999994
62.0,44.599999999999994
63.0,44.599999999999994
64.0,44.599999999999994
65.0,44.599999999999994
66.0,44.599999999999994
67.0,44.599999999999994
68.0,44.599999999999994
69.0,44.599999999999994
70.0,44.599999999999994
71.0,44.599999999999994
72.0,44.599999999999994
73.0,44.599999999999994
74.0,44.599999999999994
75.0,44.599999999999994
76.0,44.599999999999994
77.0,44.599999999999994
78.0,44.599999999999994
79.0,44.599999999999994
80.0,28.11133333333333
81.0,11.622666666666667
82.0,-4.866
83.0,-4.866
84.0,-6.734999999999999
85.0,-8.604
86.0,-10.472999999999999
87.0,-12.341999999999999
88.0,-14.210999999999999
89.0,-16.08
90.0,-17.948999999999998
91.0,-19.817999999999998
92.0,-19.817999999999998
93.0,-12.754666666666662
94.0,-5.691333333333324
95.0,1.372000000000014
96.0,1.372000000000014
97.0,1.372000000000014
98.0,1.372000000000014
99.0,1.372000000000014
100.0,1.372000000000014
101.0,1.372000000000014
102.0,1.372000000000014
103.0,1.372000000000014
104.0,1.372000000000014
105.0,1.372000000000014
106.0,1.372000000000014
107.0,1.372000000000014
108.0,1.372000000000014
109.0,1.372000000000014
110.0,1.372000000000014
111.0,1.372000000000014
112.0,1.372000000000014
113.0,1.372000000000014
114.0,1.372000000000014
115.0,1.372000000000014
116.0,1.372000000000014
117.0,1.372000000000014
118.0,1.372000000000014
119.0,1.372000000000014
120.0,1.372000000000014
121.0,1.372000000000014
122.0,1.372000000000014
123.0,1.372000000000014
124.0,1.372000000000014
125.0,1.372000000000014
126.0,1.372000000000014
127.0,1.372000000000014
128.0,1.372000000000014
129.0,1.372000000000014
130.0,1.372000000000014
131.0,1.372000000000014
132.0,1.372000000000014
133.0,1.372000000000014
134.0,1.372000000000014
135.0,1.372000000000014
136.0,1.372000000000014
137.0,1.372000000000014
138.0,1.372000000000014
139.0,1.372000000000014
140.0,1.372000000000014
141.0,1.372000000000014
142.0,1.372000000000014
143.0,1.372000000000014
144.0,1.372000000000014
145.0,1.372000000000014
146.0,1.372000000000014
147.0,1.372000000000014
148.0,1.372000000000014
149.0,1.372000000000014
150.0,1.372000000000014
151.0,1.372000000000014
152.0,1.372000000000014
153.0,1.372000000000014
154.0,1.971000000000013
155.0,2.570000000000012
156.0,3.169000000000011
157.0,3.76800000000001
158.0,4.367000000000009
159.0,4.966000000000008
160.0,4.966000000000008
161.0,8.928571428571438
162.0,12.891142857142865
163.0,16.853714285714293
164.0,20.816285714285723
165.0,24.778857142857152
166.0,28.741428571428578
167.0,32.70400000000001
168.0,32.70400000000001
169.0,32.70400000000001
170.0,32.70400000000001
171.0,32.70400000000001
172.0,32.70400000000001
173.0,32.70400000000001
174.0,32.70400000000001
175.0,32.70400000000001
176.0,32.70400000000001
177.0,32.70400000000001
178.0,32.70400000000001
179.0,32.70400000000001
180.0,32.70400000000001
181.0,32.70400000000001
182.0,32.70400000000001
183.0,32.70400000000001
184.0,32.70400000000001
185.0,32.70400000000001
186.0,32.70400000000001
187.0,32.70400000000001
188.0,32.70400000000001
189.0,32.70400000000001
190.0,32.70400000000001
191.0,32.70400000000001
192.0,32.70400000000001
193.0,32.70400000000001
194.0,32.70400000000001
195.0,32.70400000000001
196.0,32.70400000000001
197.0,32.70400000000001
198.0,32.70400000000001
199.0,32.70400000000001
200.0,32.70400000000001
201.0,32.70400000000001
202.0,32.70400000000001
203.0,32.70400000000001
204.0,32.70400000000001
205.0,32.70400000000001
206.0,32.70400000000001
207.0,32.70400000000001
208.0,32.70400000000001
209.0,32.70400000000001
210.0,32.70400000000001
211.0,32.70400000000001
212.0,32.70400000000001
213.0,32.70400000000001
214.0,32.70400000000001
215.0,32.70400000000001
216.0,32.70400000000001
217.0,32.70400000000001
218.0,32.70400000000001
219.0,32.70400000000001
220.0,32.70400000000001
221.0,32.70400000000001
222.0,32.70400000000001
223.0,32.70400000000001
224.0,32.70400000000001
225.0,32.70400000000001
226.0,32.70400000000001
227.0,32.70400000000001
228.0,32.70400000000001
229.0,32.70400000000001
230.0,32.70400000000001
231.0,32.70400000000001
232.0,32.70400000000001
233.0,32.70400000000001
234.0,32.70400000000001
235.0,32.70400000000001
236.0,32.70400000000001
237.0,32.70400000000001
238.0,32.70400000000001
239.0,32.70400000000001
240.0,32.70400000000001
241.0,32.70400000000001
242.0,32.70400000000001
243.0,32.70400000000001
244.0,32.70400000000001
245.0,32.70400000000001
246.0,32.70400000000001
247.0,32.70400000000001
248.0,32.70400000000001
249.0,32.70400000000001
250.0,32.70400000000001
251.0,32.70400000000001
252.0,32.70400000000001
253.0,32.70400000000001
254.0,32.70400000000001
255.0,32.70400000000001
256.0,32.70400000000001
257.0,32.70400000000001
258.0,32.70400000000001
259.0,32.70400000000001
260.0,32.70400000000001
261.0,32.70400000000001
262.0,32.70400000000001
263.0,32.70400000000001
264.0,32.70400000000001
265.0,32.70400000000001
266.0,32.70400000000001
267.0,32.70400000000001
268.0,32.70400000000001
269.0,32.70400000000001
270.0,32.70400000000001
271.0,32.70400000000001
272.0,32.70400000000001
273.0,32.70400000000001
274.0,32.70400000000001
275.0,32.70400000000001
276.0,32.70400000000001
277.0,32.70400000000001
278.0,32.70400000000001
279.0,32.70400000000001
280.0,32.70400000000001
281.0,32.70400000000001
282.0,32.70400000000001
283.0,32.70400000000001
284.0,32.70400000000001
285.0,32.70400000000001
286.0,32.70400000000001
287.0,32.70400000000001
288.0,32.70400000000001
289.0,32.70400000000001
290.0,32.70400000000001
291.0,32.70400000000001
292.0,32.70400000000001
293.0,32.70400000000001
294.0,32.70400000000001
295.0,32.70400000000001
296.0,32.70400000000001
297.0,32.70400000000001
298.0,32.70400000000001
299.0,32.70400000000001
300.0,32.70400000000001
301.0,32.70400000000001
302.0,32.70400000000001
303.0,32.70400000000001
304.0,32.70400000000001
305.0,32.70400000000001
306.0,32.70400000000001
307.0,32.70400000000001
308.0,32.70400000000001
309.0,32.70400000000001
310.0,32.70400000000001
311.0,32.70400000000001
312.0,32.70400000000001
313.0,32.70400000000001
314.0,32.70400000000001
315.0,32.70400000000001
316.0,32.70400000000001
317.0,32.70400000000001
318.0,32.70400000000001
319.0,32.70400000000001
320.0,32.70400000000001
321.0,32.70400000000001
322.0,32.70400000000001
323.0,32.70400000000001
324.0,32.70400000000001
325.0,32.70400000000001
326.0,32.70400000000001
327.0,32.70400000000001
328.0,32.70400000000001
329.0,32.70400000000001
330.0,32.70400000000001
331.0,32.70400000000001
332.0,32.70400000000001
333.0,32.70400000000001
334.0,32.70400000000001
335.0,32.70400000000001
336.0,32.70400000000001
337.0,32.70400000000001
338.0,32.70400000000001
339.0,32.70400000000001
340.0,32.70400000000001
341.0,32.70400000000001
342.0,32.70400000000001
343.0,32.70400000000001
344.0,32.70400000000001
345.0,32.70400000000001
346.0,32.70400000000001
347.0,32.70400000000001
348.0,32.70400000000001
349.0,32.70400000000001
350.0,32.70400000000001
351.0,32.70400000000001
352.0,32.70400000000001
353.0,32.70400000000001
354.0,32.70400000000001
355.0,32.70400000000001
356.0,32.70400000000001
357.0,32.70400000000001
358.0,32.70400000000001
359.0,32.70400000000001
360.0,32.70400000000001
361.0,32.70400000000001
362.0,32.70400000000001
363.0,32.70400000000001
364.0,32.70400000000001
365.0,32.70400000000001
366.0,32.70400000000001
367.0,32.70400000000001
368.0,32.70400000000001
369.0,32.70400000000001
370.0,32.70400000000001
371.0,32.70400000000001
372.0,32.70400000000001
373.0,32.70400000000001
374.0,32.70400000000001
375.0,32.70400000000001
376.0,32.70400000000001
377.0,32.70400000000001
378.0,32.70400000000001
379.0,32.70400000000001
380.0,27.50133333333334
381.0,22.29866666666667
382.0,17.096000000000004
383.0,16.739
384.0,16.381999999999998
385.0,16.024999999999995
386.0,15.667999999999992
387.0,15.667999999999992
388.0,15.667999999999992
389.0,15.667999999999992
390.0,15.667999999999992
391.0,15.667999999999992
392.0,15.667999999999992
393.0,15.667999999999992
394.0,15.667999999999992
395.0,15.667999999999992
396.0,15.667999999999992
397.0,15.667999999999992
398.0,15.667999999999992
399.0,15.667999999999992
400.0,20.014
401.0,24.360000000000007
402.0,28.706000000000017
403.0,28.706000000000017
404.0,28.706000000000017
405.0,28.706000000000017
406.0,28.706000000000017
407.0,28.706000000000017
408.0,28.706000000000017
409.0,28.706000000000017
410.0,28.706000000000017
411.0,28.706000000000017
412.0,28.706000000000017
413.0,28.706000000000017
414.0,28.706000000000017
415.0,28.706000000000017
416.0,28.706000000000017
417.0,28.706000000000017
418.0,28.706000000000017
419.0,28.706000000000017
420.0,28.706000000000017
421.0,28.706000000000017
422.0,28.706000000000017
423.0,28.706000000000017
424.0,28.706000000000017
425.0,28.706000000000017
426.0,28.706000000000017
427.0,28.706000000000017
428.0,28.706000000000017
429.0,28.706000000000017
430.0,28.706000000000017
431.0,28.706000000000017
432.0,28.706000000000017
433.0,28.706000000000017
434.0,28.706000000000017
435.0,28.706000000000017
436.0,28.706000000000017
437.0,28.706000000000017
438.0,28.706000000000017
439.0,28.706000000000017
440.0,28.706000000000017
441.0,28.706000000000017
442.0,28.706000000000017
443.0,28.706000000000017
444.0,28.706000000000017
445.0,28.706000000000017
446.0,28.706000000000017
447.0,28.706000000000017
448.0,28.706000000000017
449.0,28.706000000000017
450.0,28.706000000000017
451.0,28.706000000000017
452.0,28.706000000000017
453.0,28.706000000000017
454.0,28.706000000000017
455.0,28.706000000000017
456.0,28.706000000000017
457.0,28.706000000000017
458.0,28.706000000000017
459.0,28.706000000000017
460.0,28.706000000000017
461.0,28.706000000000017
462.0,28.706000000000017
463.0,28.706000000000017
464.0,28.706000000000017
465.0,28.706000000000017
466.0,28.706000000000017
467.0,28.706000000000017
468.0,28.706000000000017
469.0,28.706000000000017
470.0,28.706000000000017
471.0,28.706000000000017
472.0,28.706000000000017
473.0,28.706000000000017
474.0,28.706000000000017
475.0,28.706000000000017
476.0,28.706000000000017
477.0,28.706000000000017
478.0,28.706000000000017
479.0,28.706000000000017
480.0,28.706000000000017
481.0,28.706000000000017
482.0,28.706000000000017
483.0,28.706000000000017
484.0,28.706000000000017
485.0,28.706000000000017
486.0,28.706000000000017
487.0,28.706000000000017
488.0,28.706000000000017
489.0,28.706000000000017
490.0,28.706000000000017
491.0,28.706000000000017
492.0,28.706000000000017
493.0,28.706000000000017
494.0,28.706000000000017
495.0,28.706000000000017
496.0,28.706000000000017
497.0,28.706000000000017
498.0,28.706000000000017
499.0,28.706000000000017
500.0,28.706000000000017
501.0,28.706000000000017
502.0,28.706000000000017
503.0,28.706000000000017
504.0,28.706000000000017
505.0,28.706000000000017
506.0,28.706000000000017
507.0,28.706000000000017
508.0,28.706000000000017
509.0,28.706000000000017
510.0,28.706000000000017
511.0,28.706000000000017
512.0,28.706000000000017
513.0,28.706000000000017
514.0,28.706000000000017
515.0,28.706000000000017
516.0,28.706000000000017
517.0,28.706000000000017
518.0,28.706000000000017
519.0,28.706000000000017
520.0,28.706000000000017
521.0,28.706000000000017
522.0,28.706000000000017
523.0,28.706000000000017
524.0,34.49600000000001
525.0,40.286
526.0,40.286
527.0,40.286
528.0,40.286
529.0,40.286
530.0,16.493000000000002
531.0,-7.299999999999997
532.0,0.8340000000000085
533.0,8.968000000000014
534.0,17.102000000000018
535.0,17.102000000000018
536.0,17.102000000000018
537.0,17.102000000000018
538.0,17.102000000000018
539.0,17.102000000000018
540.0,17.102000000000018
541.0,17.102000000000018
542.0,17.102000000000018
543.0,17.102000000000018
544.0,17.102000000000018
545.0,17.102000000000018
546.0,17.102000000000018
547.0,17.102000000000018
548.0,17.102000000000018
549.0,17.102000000000018
550.0,17.102000000000018
551.0,17.102000000000018
552.0,17.102000000000018
553.0,17.102000000000018
554.0,17.102000000000018
555.0,17.102000000000018
556.0,17.102000000000018
557.0,17.102000000000018
558.0,17.102000000000018
559.0,17.102000000000018
560.0,17.102000000000018
561.0,17.102000000000018
562.0,17.102000000000018
563.0,17.102000000000018
564.0,17.102000000000018
565.0,17.102000000000018
566.0,17.102000000000018
567.0,17.102000000000018
568.0,17.102000000000018
569.0,17.102000000000018
570.0,17.102000000000018
571.0,17.102000000000018
572.0,17.102000000000018
573.0,17.102000000000018
574.0,17.102000000000018
575.0,17.102000000000018
576.0,17.102000000000018
577.0,17.102000000000018
578.0,17.102000000000018
579.0,17.102000000000018
580.0,17.102000000000018
581.0,17.102000000000018
582.0,17.102000000000018
583.0,17.102000000000018
584.0,17.102000000000018
