Time(sec),Data
0.0,-24.965999999999994
1.0,-24.965999999999994
2.0,-24.965999999999994
3.0,-24.965999999999994
4.0,-24.965999999999994
5.0,-24.965999999999994
6.0,-24.965999999999994
7.0,-24.965999999999994
8.0,-24.965999999999994
9.0,-24.965999999999994
10.0,-24.965999999999994
11.0,-24.965999999999994
12.0,-24.965999999999994
13.0,-24.965999999999994
14.0,-24.965999999999994
15.0,-24.965999999999994
16.0,-24.965999999999994
17.0,-24.965999999999994
18.0,-24.965999999999994
19.0,-24.965999999999994
20.0,-24.965999999999994
21.0,-24.965999999999994
22.0,-20.809333333333328
23.0,-16.652666666666665
24.0,-12.496
25.0,-8.339333333333336
26.0,-4.18266666666667
27.0,-0.026000000000006906
28.0,4.130666666666656
29.0,8.287333333333322
30.0,12.443999999999988
31.0,12.443999999999988
32.0,12.443999999999988
33.0,12.443999999999988
34.0,12.443999999999988
35.0,12.443999999999988
36.0,12.443999999999988
37.0,12.443999999999988
38.0,12.443999999999988
39.0,12.443999999999988
40.0,12.443999999999988
41.0,12.443999999999988
42.0,12.443999999999988
43.0,12.57499999999999
44.0,12.705999999999992
45.0,12.836999999999993
46.0,12.967999999999995
47.0,13.098999999999997
48.0,13.229999999999999
49.0,13.361
50.0,13.492
51.0,13.623000000000003
52.0,13.754000000000005
53.0,13.754000000000005
54.0,13.754000000000005
55.0,13.754000000000005
56.0,13.754000000000005
57.0,13.754000000000005
58.0,13.754000000000005
59.0,13.754000000000005
60.0,13.754000000000005
61.0,13.754000000000005
62.0,13.754000000000005
63.0,13.754000000000005
64.0,13.754000000000005
65.0,13.754000000000005
66.0,13.754000000000005
67.0,13.754000000000005
68.0,13.754000000000005
69.0,13.754000000000005
70.0,13.754000000000005
71.0,13.754000000000005
72.0,13.754000000000005
73.0,13.754000000000005
74.0,13.754000000000005
75.0,13.754000000000005
76.0,13.754000000000005
77.0,13.754000000000005
78.0,13.754000000000005
79.0,13.754000000000005
80.0,6.930000000000007
81.0,0.10600000000000875
82.0,-6.717999999999989
83.0,-6.717999999999989
84.0,-9.131499999999992
85.0,-11.544999999999995
86.0,-13.958499999999997
87.0,-16.372
88.0,-18.785500000000003
89.0,-21.199000000000005
90.0,-23.612500000000008
91.0,-26.02600000000001
92.0,-26.02600000000001
93.0,-18.849333333333337
94.0,-11.672666666666666
95.0,-4.495999999999995
96.0,-4.495999999999995
97.0,-4.495999999999995
98.0,-4.495999999999995
99.0,-4.495999999999995
100.0,-4.495999999999995
101.0,-4.495999999999995
102.0,-4.495999999999995
103.0,-4.495999999999995
104.0,-4.495999999999995
105.0,-4.495999999999995
106.0,-4.495999999999995
107.0,-4.495999999999995
108.0,-4.495999999999995
109.0,-4.495999999999995
110.0,-4.495999999999995
111.0,-4.495999999999995
112.0,-4.495999999999995
113.0,-4.495999999999995
114.0,-4.495999999999995
115.0,-4.495999999999995
116.0,-4.495999999999995
117.0,-4.495999999999995
118.0,-4.495999999999995
119.0,-4.495999999999995
120.0,-4.495999999999995
121.0,-4.495999999999995
122.0,-4.495999999999995
123.0,-4.495999999999995
124.0,-4.495999999999995
125.0,-4.495999999999995
126.0,-4.495999999999995
127.0,-4.495999999999995
128.0,-4.495999999999995
129.0,-4.495999999999995
130.0,-4.495999999999995
131.0,-4.495999999999995
132.0,-4.495999999999995
133.0,-4.495999999999995
134.0,-4.495999999999995
135.0,-4.495999999999995
136.0,-4.495999999999995
137.0,-4.495999999999995
138.0,-4.495999999999995
139.0,-4.495999999999995
140.0,-4.495999999999995
141.0,-4.495999999999995
142.0,-4.495999999999995
143.0,-4.495999999999995
144.0,-4.495999999999995
145.0,-4.495999999999995
146.0,-4.495999999999995
147.0,-4.495999999999995
148.0,-4.495999999999995
149.0,-4.495999999999995
150.0,-4.495999999999995
151.0,-4.495999999999995
152.0,-4.495999999999995
153.0,-4.495999999999995
154.0,-3.6266666666666603
155.0,-2.7573333333333254
156.0,-1.887999999999991
157.0,-1.0186666666666562
158.0,-0.14933333333332133
159.0,0.7200000000000131
160.0,0.7200000000000131
161.0,8.166857142857152
162.0,15.613714285714291
163.0,23.06057142857143
164.0,30.50742857142857
165.0,37.95428571428571
166.0,45.401142857142844
167.0,52.847999999999985
168.0,52.847999999999985
169.0,52.847999999999985
170.0,52.847999999999985
171.0,52.847999999999985
172.0,52.847999999999985
173.0,52.847999999999985
174.0,52.847999999999985
175.0,52.847999999999985
176.0,52.847999999999985
177.0,52.847999999999985
178.0,52.847999999999985
179.0,52.847999999999985
180.0,52.847999999999985
181.0,52.847999999999985
182.0,52.847999999999985
183.0,52.847999999999985
184.0,52.847999999999985
185.0,52.847999999999985
186.0,52.847999999999985
187.0,52.847999999999985
188.0,52.847999999999985
189.0,52.847999999999985
190.0,52.847999999999985
191.0,52.847999999999985
192.0,52.847999999999985
193.0,52.847999999999985
194.0,52.847999999999985
195.0,52.847999999999985
196.0,52.847999999999985
197.0,52.847999999999985
198.0,52.847999999999985
199.0,52.847999999999985
200.0,52.847999999999985
201.0,52.847999999999985
202.0,52.847999999999985
203.0,52.847999999999985
204.0,52.847999999999985
205.0,52.847999999999985
206.0,52.847999999999985
207.0,52.847999999999985
208.0,52.847999999999985
209.0,52.847999999999985
210.0,52.847999999999985
211.0,52.847999999999985
212.0,52.847999999999985
213.0,52.847999999999985
214.0,52.847999999999985
215.0,52.847999999999985
216.0,52.847999999999985
217.0,52.847999999999985
218.0,52.847999999999985
219.0,52.847999999999985
220.0,52.847999999999985
221.0,52.847999999999985
222.0,52.847999999999985
223.0,52.847999999999985
224.0,52.847999999999985
225.0,52.847999999999985
226.0,52.847999999999985
227.0,52.847999999999985
228.0,52.847999999999985
229.0,52.847999999999985
230.0,52.847999999999985
231.0,52.847999999999985
232.0,52.847999999999985
233.0,52.847999999999985
234.0,52.847999999999985
235.0,52.847999999999985
236.0,52.847999999999985
237.0,52.847999999999985
238.0,52.847999999999985
239.0,52.847999999999985
240.0,52.847999999999985
241.0,52.847999999999985
242.0,52.847999999999985
243.0,52.847999999999985
244.0,52.847999999999985
245.0,52.847999999999985
246.0,52.847999999999985
247.0,52.847999999999985
248.0,52.847999999999985
249.0,52.847999999999985
250.0,52.847999999999985
251.0,52.847999999999985
252.0,52.847999999999985
253.0,52.847999999999985
254.0,52.847999999999985
255.0,52.847999999999985
256.0,52.847999999999985
257.0,52.847999999999985
258.0,52.847999999999985
259.0,52.847999999999985
260.0,52.847999999999985
261.0,52.847999999999985
262.0,52.847999999999985
263.0,52.847999999999985
264.0,52.847999999999985
265.0,52.847999999999985
266.0,52.847999999999985
267.0,52.847999999999985
268.0,52.847999999999985
269.0,52.847999999999985
270.0,52.847999999999985
271.0,52.847999999999985
272.0,52.847999999999985
273.0,52.847999999999985
274.0,52.847999999999985
275.0,52.847999999999985
276.0,52.847999999999985
277.0,52.847999999999985
278.0,52.847999999999985
279.0,52.847999999999985
280.0,52.847999999999985
281.0,52.847999999999985
282.0,52.847999999999985
283.0,52.847999999999985
284.0,52.847999999999985
285.0,52.847999999999985
286.0,52.847999999999985
287.0,52.847999999999985
288.0,52.847999999999985
289.0,52.847999999999985
290.0,52.847999999999985
291.0,52.847999999999985
292.0,52.847999999999985
293.0,52.847999999999985
294.0,52.847999999999985
295.0,52.847999999999985
296.0,52.847999999999985
297.0,52.847999999999985
298.0,52.847999999999985
299.0,52.847999999999985
300.0,52.847999999999985
301.0,52.847999999999985
302.0,52.847999999999985
303.0,52.847999999999985
304.0,52.847999999999985
305.0,52.847999999999985
306.0,52.847999999999985
307.0,52.847999999999985
308.0,52.847999999999985
309.0,52.847999999999985
310.0,52.847999999999985
311.0,52.847999999999985
312.0,52.847999999999985
313.0,52.847999999999985
314.0,52.847999999999985
315.0,52.847999999999985
316.0,52.847999999999985
317.0,52.847999999999985
318.0,52.847999999999985
319.0,52.847999999999985
320.0,52.847999999999985
321.0,52.847999999999985
322.0,52.847999999999985
323.0,52.847999999999985
324.0,52.847999999999985
325.0,52.847999999999985
326.0,52.847999999999985
327.0,52.847999999999985
328.0,52.847999999999985
329.0,52.847999999999985
330.0,52.847999999999985
331.0,52.847999999999985
332.0,52.847999999999985
333.0,52.847999999999985
334.0,52.847999999999985
335.0,52.847999999999985
336.0,52.847999999999985
337.0,52.847999999999985
338.0,52.847999999999985
339.0,52.847999999999985
340.0,52.847999999999985
341.0,52.847999999999985
342.0,52.847999999999985
343.0,52.847999999999985
344.0,52.847999999999985
345.0,52.847999999999985
346.0,52.847999999999985
347.0,52.847999999999985
348.0,52.847999999999985
349.0,52.847999999999985
350.0,52.847999999999985
351.0,52.847999999999985
352.0,52.847999999999985
353.0,52.847999999999985
354.0,52.847999999999985
355.0,52.847999999999985
356.0,52.847999999999985
357.0,52.847999999999985
358.0,52.847999999999985
359.0,52.847999999999985
360.0,52.847999999999985
361.0,52.847999999999985
362.0,52.847999999999985
363.0,52.847999999999985
364.0,52.847999999999985
365.0,52.847999999999985
366.0,52.847999999999985
367.0,52.847999999999985
368.0,52.847999999999985
369.0,52.847999999999985
370.0,52.847999999999985
371.0,52.847999999999985
372.0,52.847999999999985
373.0,52.847999999999985
374.0,52.847999999999985
375.0,52.847999999999985
376.0,52.847999999999985
377.0,52.847999999999985
378.0,52.847999999999985
379.0,52.847999999999985
380.0,43.98266666666666
381.0,35.117333333333335
382.0,26.25200000000001
383.0,29.155
384.0,32.05799999999999
385.0,34.960999999999984
386.0,37.863999999999976
387.0,37.863999999999976
388.0,37.863999999999976
389.0,37.863999999999976
390.0,37.863999999999976
391.0,37.863999999999976
392.0,37.863999999999976
393.0,37.863999999999976
394.0,37.863999999999976
395.0,37.863999999999976
396.0,37.863999999999976
397.0,37.863999999999976
398.0,37.863999999999976
399.0,37.863999999999976
400.0,41.56466666666665
401.0,45.26533333333333
402.0,48.96600000000001
403.0,48.96600000000001
404.0,48.96600000000001
405.0,48.96600000000001
406.0,48.96600000000001
407.0,48.96600000000001
408.0,48.96600000000001
409.0,48.96600000000001
410.0,48.96600000000001
411.0,48.96600000000001
412.0,48.96600000000001
413.0,48.96600000000001
414.0,48.96600000000001
415.0,48.96600000000001
416.0,48.96600000000001
417.0,48.96600000000001
418.0,48.96600000000001
419.0,48.96600000000001
420.0,48.96600000000001
421.0,48.96600000000001
422.0,48.96600000000001
423.0,48.96600000000001
424.0,48.96600000000001
425.0,48.96600000000001
426.0,48.96600000000001
427.0,48.96600000000001
428.0,48.96600000000001
429.0,48.96600000000001
430.0,48.96600000000001
431.0,48.96600000000001
432.0,48.96600000000001
433.0,48.96600000000001
434.0,48.96600000000001
435.0,48.96600000000001
436.0,48.96600000000001
437.0,48.96600000000001
438.0,48.96600000000001
439.0,48.96600000000001
440.0,48.96600000000001
441.0,48.96600000000001
442.0,48.96600000000001
443.0,48.96600000000001
444.0,48.96600000000001
445.0,48.96600000000001
446.0,48.96600000000001
447.0,48.96600000000001
448.0,48.96600000000001
449.0,48.96600000000001
450.0,48.96600000000001
451.0,48.96600000000001
452.0,48.96600000000001
453.0,48.96600000000001
454.0,48.96600000000001
455.0,48.96600000000001
456.0,48.96600000000001
457.0,48.96600000000001
458.0,48.96600000000001
459.0,48.96600000000001
460.0,48.96600000000001
461.0,48.96600000000001
462.0,48.96600000000001
463.0,48.96600000000001
464.0,48.96600000000001
465.0,48.96600000000001
466.0,48.96600000000001
467.0,48.96600000000001
468.0,48.96600000000001
469.0,48.96600000000001
470.0,48.96600000000001
471.0,48.96600000000001
472.0,48.96600000000001
473.0,48.96600000000001
474.0,48.96600000000001
475.0,48.96600000000001
476.0,48.96600000000001
477.0,48.96600000000001
478.0,48.96600000000001
479.0,48.96600000000001
480.0,48.96600000000001
481.0,48.96600000000001
482.0,48.96600000000001
483.0,48.96600000000001
484.0,48.96600000000001
485.0,48.96600000000001
486.0,48.96600000000001
487.0,48.96600000000001
488.0,48.96600000000001
489.0,48.96600000000001
490.0,48.96600000000001
491.0,48.96600000000001
492.0,48.96600000000001
493.0,48.96600000000001
494.0,48.96600000000001
495.0,48.96600000000001
496.0,48.96600000000001
497.0,48.96600000000001
498.0,48.96600000000001
499.0,48.96600000000001
500.0,48.96600000000001
501.0,48.96600000000001
502.0,48.96600000000001
503.0,48.96600000000001
504.0,48.96600000000001
505.0,48.96600000000001
506.0,48.96600000000001
507.0,48.96600000000001
508.0,48.96600000000001
509.0,48.96600000000001
510.0,48.96600000000001
511.0,48.96600000000001
512.0,48.96600000000001
513.0,48.96600000000001
514.0,48.96600000000001
515.0,48.96600000000001
516.0,48.96600000000001
517.0,48.96600000000001
518.0,48.96600000000001
519.0,48.96600000000001
520.0,48.96600000000001
521.0,48.96600000000001
522.0,48.96600000000001
523.0,48.96600000000001
524.0,47.438
525.0,45.91
526.0,45.91
527.0,45.91
528.0,45.91
529.0,45.91
530.0,26.601000000000006
531.0,7.292000000000016
532.0,16.570000000000014
533.0,25.84800000000001
534.0,35.126000000000005
535.0,35.126000000000005
536.0,35.126000000000005
537.0,35.126000000000005
538.0,35.126000000000005
539.0,35.126000000000005
540.0,35.126000000000005
541.0,35.126000000000005
542.0,35.126000000000005
543.0,35.126000000000005
544.0,35.126000000000005
545.0,35.126000000000005
546.0,35.126000000000005
547.0,35.126000000000005
548.0,35.126000000000005
549.0,35.126000000000005
550.0,35.126000000000005
551.0,35.126000000000005
552.0,35.126000000000005
553.0,35.126000000000005
554.0,35.126000000000005
555.0,35.126000000000005
556.0,35.126000000000005
557.0,35.126000000000005
558.0,35.126000000000005
559.0,35.126000000000005
560.0,35.126000000000005
561.0,35.126000000000005
562.0,35.126000000000005
563.0,35.126000000000005
564.0,35.126000000000005
565.0,35.126000000000005
566.0,35.126000000000005
567.0,35.126000000000005
568.0,35.126000000000005
569.0,35.126000000000005
570.0,35.126000000000005
571.0,35.126000000000005
572.0,35.126000000000005
573.0,35.126000000000005
574.0,35.126000000000005
575.0,35.126000000000005
576.0,35.126000000000005
577.0,35.126000000000005
578.0,35.126000000000005
579.0,35.126000000000005
580.0,35.126000000000005
581.0,35.126000000000005
582.0,35.126000000000005
583.0,35.126000000000005
584.0,35.126000000000005
